X[s],"R BICEPS BRACHII: EMG 5",X[s],"R BICEPS BRACHII: EMG 5->filter (FilterSlidingRMS21)"
0.000000,0,0.000000,0
0.0007941176,0,0.0007941176,0
0.001588235,0,0.001588235,0
0.002382353,0,0.002382353,0
0.003176471,0,0.003176471,0
0.003970588,0,0.003970588,0
0.004764706,0,0.004764706,0
0.005558823,0,0.005558823,0
0.006352941,0,0.006352941,0
0.007147059,0,0.007147059,0
0.007941176,0,0.007941176,0
0.008735294,0,0.008735294,0
0.009529412,0,0.009529412,0
0.01032353,0,0.01032353,0
0.01111765,0,0.01111765,0
0.01191176,0,0.01191176,0
0.01270588,0,0.01270588,0
0.0135,0,0.0135,0
0.01429412,0,0.01429412,0
0.01508824,0,0.01508824,0
0.01588235,0,0.01588235,0
0.01667647,0,0.01667647,0
0.01747059,0,0.01747059,0
0.01826471,0,0.01826471,0
0.01905882,0,0.01905882,0
0.01985294,0,0.01985294,0
0.02064706,0,0.02064706,0
0.02144118,0,0.02144118,0
0.02223529,0,0.02223529,0
0.02302941,0,0.02302941,0
0.02382353,0,0.02382353,0
0.02461765,0,0.02461765,0
0.02541176,0,0.02541176,0
0.02620588,0,0.02620588,0
0.027,0,0.027,0
0.02779412,0,0.02779412,0
0.02858824,0,0.02858824,0
0.02938235,0,0.02938235,0
0.03017647,0,0.03017647,0
0.03097059,0,0.03097059,0
0.0317647,0,0.0317647,0
0.03255882,0,0.03255882,0
0.03335294,0,0.03335294,0
0.03414706,0,0.03414706,0
0.03494118,0,0.03494118,0
0.03573529,0,0.03573529,0
0.03652941,0,0.03652941,0
0.03732353,0,0.03732353,0
0.03811765,0,0.03811765,0
0.03891176,0,0.03891176,0
0.03970588,0,0.03970588,0
0.0405,0,0.0405,0
0.04129412,0,0.04129412,0
0.04208823,0,0.04208823,0
0.04288235,0,0.04288235,0
0.04367647,0,0.04367647,0
0.04447059,0,0.04447059,0
0.04526471,0,0.04526471,0
0.04605882,0,0.04605882,0
0.04685294,0,0.04685294,0
0.04764706,0,0.04764706,0
0.04844118,0,0.04844118,0
0.04923529,0,0.04923529,0
0.05002941,0,0.05002941,0
0.05082353,0,0.05082353,0
0.05161764,0,0.05161764,0
0.05241176,0,0.05241176,0
0.05320588,0,0.05320588,0
0.054,0,0.054,0
0.05479412,0,0.05479412,0
0.05558823,0,0.05558823,0
0.05638235,0,0.05638235,0
0.05717647,0,0.05717647,0
0.05797059,0,0.05797059,0
0.0587647,0,0.0587647,0
0.05955882,0,0.05955882,0
0.06035294,0,0.06035294,0
0.06114706,0,0.06114706,0
0.06194118,0,0.06194118,0
0.0627353,0,0.0627353,0
0.06352941,0,0.06352941,0
0.06432353,0,0.06432353,0
0.06511765,0,0.06511765,0
0.06591176,0,0.06591176,0
0.06670588,0,0.06670588,0
0.0675,0,0.0675,0
0.06829412,0,0.06829412,0
0.06908824,0,0.06908824,0
0.06988236,0,0.06988236,0
0.07067647,0,0.07067647,0
0.07147059,0,0.07147059,0
0.0722647,0,0.0722647,0
0.07305882,0,0.07305882,0
0.07385294,0,0.07385294,0
0.07464705,0,0.07464705,0
0.07544117,0,0.07544117,0
0.07623529,0,0.07623529,0
0.07702941,0,0.07702941,0
0.07782353,0,0.07782353,0
0.07861765,0,0.07861765,0
0.07941176,0,0.07941176,0
0.08020588,0,0.08020588,0
0.081,0,0.081,0
0.08179411,0,0.08179411,0
0.08258823,0,0.08258823,0
0.08338235,0,0.08338235,0
0.08417647,0,0.08417647,0
0.08497059,0,0.08497059,0
0.08576471,0,0.08576471,0
0.08655882,0,0.08655882,0
0.08735294,0,0.08735294,0
0.08814706,0,0.08814706,0
0.08894117,0,0.08894117,0
0.08973529,0,0.08973529,0
0.09052941,0,0.09052941,0
0.09132352,0,0.09132352,0
0.09211764,0,0.09211764,0
0.09291176,0,0.09291176,0
0.09370588,0,0.09370588,0
0.0945,-1.326009E-05,0.0945,0
0.09529412,2.517739E-06,0.09529412,0
0.09608823,5.874723E-06,0.09608823,0
0.09688235,6.378271E-06,0.09688235,0
0.09767647,-3.356985E-07,0.09767647,0
0.09847058,1.174945E-06,0.09847058,0
0.0992647,-1.678492E-07,0.0992647,0
0.1000588,-1.09102E-05,0.1000588,0
0.1008529,-2.198825E-05,0.1008529,0
0.1016471,-3.40734E-05,0.1016471,0
0.1024412,-3.927672E-05,0.1024412,0
0.1032353,-2.198825E-05,0.1032353,0
0.1040294,4.36408E-06,0.1040294,0
0.1048235,1.745632E-05,0.1048235,0
0.1056176,1.426719E-05,0.1056176,0
0.1064118,9.063859E-06,0.1064118,0
0.1072059,1.174945E-06,0.1072059,0
0.108,-1.02388E-05,0.108,0
0.1087941,-1.326009E-05,0.1087941,0
0.1095882,-2.030976E-05,0.1095882,0
0.1103823,-3.37377E-05,0.1103823,0
0.1111765,-3.743038E-05,0.1111765,0
0.1119706,-2.903792E-05,0.1119706,0
0.1127647,-3.457694E-05,0.1127647,0
0.1135588,-4.867628E-05,0.1135588,0
0.1143529,-5.690089E-05,0.1143529,0
0.1151471,-4.246586E-05,0.1151471,0
0.1159412,-9.567407E-06,0.1159412,0
0.1167353,2.618448E-05,0.1167353,0
0.1175294,4.448005E-05,0.1175294,0
0.1183235,3.709468E-05,0.1183235,0
0.1191176,2.937362E-05,0.1191176,0
0.1199118,3.978027E-05,0.1199118,0
0.1207059,4.750134E-05,0.1207059,0
0.1215,4.380865E-05,0.1215,0
0.1222941,3.910887E-05,0.1222941,0
0.1230882,2.937362E-05,0.1230882,0
0.1238824,1.426719E-05,0.1238824,0
0.1246765,8.392462E-07,0.1246765,0
0.1254706,-4.531929E-06,0.1254706,0
0.1262647,-7.217518E-06,0.1262647,0
0.1270588,-1.695277E-05,0.1270588,0
0.1278529,-2.870222E-05,0.1278529,0
0.1286471,-2.903792E-05,0.1286471,0
0.1294412,-2.568093E-05,0.1294412,0
0.1302353,-3.491264E-05,0.1302353,0
0.1310294,-4.162661E-05,0.1310294,0
0.1318235,-5.253681E-05,0.1318235,0
0.1326177,-7.335011E-05,0.1326177,0
0.1334118,-9.282063E-05,0.1334118,0
0.1342059,-0.0001143053,0.1342059,0
0.135,-0.0001116197,0.135,0
0.1357941,-6.176852E-05,0.1357941,0
0.1365882,9.567407E-06,0.1365882,0
0.1373824,9.752041E-05,0.1373824,0
0.1381765,0.0001529107,0.1381765,0
0.1389706,0.0001629816,0.1389706,0
0.1397647,0.0001299153,0.1397647,0
0.1405588,6.898604E-05,0.1405588,0
0.1413529,1.879912E-05,0.1413529,0
0.1421471,-7.049668E-06,0.1421471,0
0.1429412,-2.24918E-05,0.1429412,0
0.1437353,-3.877317E-05,0.1437353,0
0.1445294,-3.27306E-05,0.1445294,0
0.1453235,-3.575189E-05,0.1453235,0
0.1461176,-4.582284E-05,0.1461176,0
0.1469118,-4.917983E-05,0.1469118,0
0.1477059,-4.045167E-05,0.1477059,0
0.1485,-2.803082E-05,0.1485,0
0.1492941,-3.155566E-05,0.1492941,0
0.1500882,-3.726253E-05,0.1500882,0
0.1508823,-4.263371E-05,0.1508823,0
0.1516765,-3.23949E-05,0.1516765,0
0.1524706,-1.292439E-05,0.1524706,0
0.1532647,-1.678492E-07,0.1532647,0
0.1540588,3.189136E-06,0.1540588,0
0.1548529,9.567407E-06,0.1548529,0
0.1556471,8.392462E-06,0.1556471,0
0.1564412,1.174945E-06,0.1564412,0
0.1572353,-7.888914E-06,0.1572353,0
0.1580294,-9.063859E-06,0.1580294,0
0.1588235,-1.141375E-05,0.1588235,0
0.1596176,-1.02388E-05,0.1596176,0
0.1604118,-1.527428E-05,0.1604118,0
0.1612059,-1.963836E-05,0.1612059,0
0.162,-2.534523E-05,0.162,0
0.1627941,-2.836652E-05,0.1627941,0
0.1635882,-2.517739E-05,0.1635882,0
0.1643824,-1.913481E-05,0.1643824,0
0.1651765,-1.863127E-05,0.1651765,0
0.1659706,-2.299535E-05,0.1659706,0
0.1667647,-2.467384E-05,0.1667647,0
0.1675588,-2.702373E-05,0.1675588,0
0.1683529,-3.138781E-05,0.1683529,0
0.1691471,-2.702373E-05,0.1691471,0
0.1699412,-1.258869E-05,0.1699412,0
0.1707353,1.174945E-06,0.1707353,0
0.1715294,1.326009E-05,0.1715294,0
0.1723235,1.695277E-05,0.1723235,0
0.1731176,1.460288E-05,0.1731176,0
0.1739118,1.05745E-05,0.1739118,0
0.1747059,7.049668E-06,0.1747059,0
0.1755,3.692683E-06,0.1755,0
0.1762941,-1.678492E-07,0.1762941,0
0.1770882,-3.356985E-07,0.1770882,0
0.1778823,-3.860533E-06,0.1778823,0
0.1786765,-1.02388E-05,0.1786765,0
0.1794706,-1.460288E-05,0.1794706,0
0.1802647,-2.299535E-05,0.1802647,0
0.1810588,-2.265965E-05,0.1810588,0
0.1818529,-1.863127E-05,0.1818529,0
0.182647,-1.577783E-05,0.182647,0
0.1834412,-8.560311E-06,0.1834412,0
0.1842353,-6.378271E-06,0.1842353,0
0.1850294,-2.18204E-06,0.1850294,0
0.1858235,6.881819E-06,0.1858235,0
0.1866176,1.527428E-05,0.1866176,0
0.1874118,1.795987E-05,0.1874118,0
0.1882059,1.493858E-05,0.1882059,0
0.189,1.326009E-05,0.189,0
0.1897941,6.378271E-06,0.1897941,0
0.1905882,2.014191E-06,0.1905882,0
0.1913823,-4.028382E-06,0.1913823,0
0.1921765,-1.12459E-05,0.1921765,0
0.1929706,-1.628138E-05,0.1929706,0
0.1937647,-2.534523E-05,0.1937647,0
0.1945588,-3.390555E-05,0.1945588,0
0.1953529,-2.937362E-05,0.1953529,0
0.1961471,-1.493858E-05,0.1961471,0
0.1969412,8.392462E-07,0.1969412,0
0.1977353,1.19173E-05,0.1977353,0
0.1985294,1.007095E-05,0.1985294,0
0.1993235,6.713969E-07,0.1993235,0
0.2001176,-9.231709E-06,0.2001176,0
0.2009118,-1.762417E-05,0.2009118,0
0.2017059,-2.484169E-05,0.2017059,0
0.2025,-2.735943E-05,0.2025,0
0.2032941,-2.786297E-05,0.2032941,0
0.2040882,-2.098116E-05,0.2040882,0
0.2048824,-1.829557E-05,0.2048824,0
0.2056765,-1.577783E-05,0.2056765,0
0.2064706,-9.567407E-06,0.2064706,0
0.2072647,-3.524834E-06,0.2072647,0
0.2080588,-1.007095E-06,0.2080588,0
0.2088529,2.517739E-06,0.2088529,0
0.2096471,6.54612E-06,0.2096471,0
0.2104412,8.392462E-06,0.2104412,0
0.2112353,7.888914E-06,0.2112353,0
0.2120294,6.881819E-06,0.2120294,0
0.2128235,1.393149E-05,0.2128235,0
0.2136176,1.863127E-05,0.2136176,0
0.2144118,1.225299E-05,0.2144118,0
0.2152059,7.888914E-06,0.2152059,0
0.216,4.196231E-06,0.216,0
0.2167941,-7.217518E-06,0.2167941,0
0.2175882,-1.795987E-05,0.2175882,0
0.2183823,-1.560998E-05,0.2183823,0
0.2191765,-1.460288E-05,0.2191765,0
0.2199706,-1.577783E-05,0.2199706,0
0.2207647,-1.628138E-05,0.2207647,0
0.2215588,-2.232395E-05,0.2215588,0
0.2223529,-2.769513E-05,0.2223529,0
0.223147,-2.903792E-05,0.223147,0
0.2239412,-3.20592E-05,0.2239412,0
0.2247353,-3.474479E-05,0.2247353,0
0.2255294,-3.23949E-05,0.2255294,0
0.2263235,-2.484169E-05,0.2263235,0
0.2271176,-1.560998E-05,0.2271176,0
0.2279118,-3.524834E-06,0.2279118,0
0.2287059,5.203327E-06,0.2287059,0
0.2295,7.049668E-06,0.2295,0
0.2302941,6.54612E-06,0.2302941,0
0.2310882,7.049668E-06,0.2310882,0
0.2318823,-1.846342E-06,0.2318823,0
0.2326765,-1.225299E-05,0.2326765,0
0.2334706,-1.829557E-05,0.2334706,0
0.2342647,-1.661708E-05,0.2342647,0
0.2350588,-1.107805E-05,0.2350588,0
0.2358529,-5.706874E-06,0.2358529,0
0.2366471,-4.531929E-06,0.2366471,0
0.2374412,-7.721065E-06,0.2374412,0
0.2382353,-1.376364E-05,0.2382353,0
0.2390294,-1.460288E-05,0.2390294,0
0.2398235,-1.695277E-05,0.2398235,0
0.2406176,-1.795987E-05,0.2406176,0
0.2414118,-2.333104E-05,0.2414118,0
0.2422059,-3.30663E-05,0.2422059,0
0.243,-5.38796E-05,0.243,0
0.2437941,-8.610666E-05,0.2437941,0
0.2445882,-0.0001168231,0.2445882,0
0.2453824,-0.0001079271,0.2453824,0
0.2461765,-4.448005E-05,0.2461765,0
0.2469706,3.675899E-05,0.2469706,0
0.2477647,0.000111284,0.2477647,0
0.2485588,0.0001341115,0.2485588,0
0.2493529,0.0001149767,0.2493529,2.993456E-05
0.250147,7.167162E-05,0.250147,3.06297E-05
0.2509412,3.021286E-05,0.2509412,3.089559E-05
0.2517353,1.326009E-05,0.2517353,3.094261E-05
0.2525294,6.210422E-06,0.2525294,3.095165E-05
0.2533235,-1.997406E-05,0.2533235,3.095364E-05
0.2541176,-3.692683E-05,0.2541176,3.097415E-05
0.2549118,-2.752728E-05,0.2549118,3.104418E-05
0.2557059,-1.963836E-05,0.2557059,3.108302E-05
0.2565,-6.54612E-06,0.2565,3.110277E-05
0.2572941,8.224612E-06,0.2572941,3.110496E-05
0.2580882,1.678492E-05,0.2580882,3.110843E-05
0.2588823,6.54612E-06,0.2588823,3.112284E-05
0.2596765,-5.539025E-06,0.2596765,3.112504E-05
0.2604706,-1.745632E-05,0.2604706,3.11266E-05
0.2612647,-2.937362E-05,0.2612647,3.114219E-05
0.2620588,-4.129091E-05,0.2620588,3.118628E-05
0.2628529,-4.095522E-05,0.2628529,3.127321E-05
0.263647,-3.642328E-05,0.263647,3.13585E-05
0.2644412,-4.045167E-05,0.2644412,3.142579E-05
0.2652353,-4.817273E-05,0.2652353,3.15086E-05
0.2660294,-4.783703E-05,0.2660294,3.162566E-05
0.2668235,-4.850843E-05,0.2668235,3.174067E-05
0.2676176,-5.203327E-05,0.2676176,3.18585E-05
0.2684118,-4.682994E-05,0.2684118,3.199354E-05
0.2692059,-2.316319E-05,0.2692059,3.21025E-05
0.27,-9.231709E-06,0.27,3.21291E-05
0.2707941,-1.678492E-07,0.2707941,3.213332E-05
0.2715882,5.371176E-06,0.2715882,3.213333E-05
0.2723823,7.721065E-06,0.2723823,3.213476E-05
0.2731765,1.426719E-05,0.2731765,3.213771E-05
0.2739706,1.242084E-05,0.2739706,3.21478E-05
0.2747647,1.510643E-06,0.2747647,3.215544E-05
0.2755588,-7.888914E-06,0.2755588,3.215555E-05
0.2763529,-6.713969E-06,0.2763529,3.215863E-05
0.2771471,-2.517739E-06,0.2771471,3.216086E-05
0.2779412,1.007095E-06,0.2779412,3.216118E-05
0.2787353,6.54612E-06,0.2787353,3.216123E-05
0.2795294,1.05745E-05,0.2795294,3.216335E-05
0.2803235,1.09102E-05,0.2803235,3.216889E-05
0.2811176,1.678492E-05,0.2811176,3.217478E-05
0.2819118,1.393149E-05,0.2819118,3.218872E-05
0.2827059,6.54612E-06,0.2827059,3.219832E-05
0.2835,6.54612E-06,0.2835,3.220044E-05
0.2842941,2.517739E-06,0.2842941,3.220256E-05
0.2850882,-8.560311E-06,0.2850882,3.220287E-05
0.2858824,-1.493858E-05,0.2858824,3.220649E-05
0.2866765,-1.829557E-05,0.2866765,3.221753E-05
0.2874706,-1.577783E-05,0.2874706,3.223406E-05
0.2882647,-1.258869E-05,0.2882647,3.224636E-05
0.2890588,-1.258869E-05,0.2890588,3.225419E-05
0.2898529,-1.359579E-05,0.2898529,3.226201E-05
0.2906471,-1.426719E-05,0.2906471,3.227113E-05
0.2914412,-1.426719E-05,0.2914412,3.228117E-05
0.2922353,-1.393149E-05,0.2922353,3.229121E-05
0.2930294,-1.292439E-05,0.2930294,3.230078E-05
0.2938235,-1.762417E-05,0.2938235,3.230902E-05
0.2946177,-1.863127E-05,0.2946177,3.232432E-05
0.2954118,-1.997406E-05,0.2954118,3.234142E-05
0.2962059,-2.232395E-05,0.2962059,3.236105E-05
0.297,-2.232395E-05,0.297,3.238556E-05
0.2977941,-1.19173E-05,0.2977941,3.241005E-05
0.2985882,-8.728161E-06,0.2985882,3.241703E-05
0.2993824,-1.09102E-05,0.2993824,3.242078E-05
0.3001765,-1.527428E-05,0.3001765,3.242662E-05
0.3009706,-2.349889E-05,0.3009706,3.243807E-05
0.3017647,-2.786297E-05,0.3017647,3.246517E-05
0.3025588,-2.165255E-05,0.3025588,3.250323E-05
0.3033529,-3.692683E-06,0.3033529,3.252619E-05
0.3041471,7.888914E-06,0.3041471,3.252686E-05
0.3049412,1.594568E-05,0.3049412,3.25299E-05
0.3057353,1.829557E-05,0.3057353,3.254235E-05
0.3065294,2.450599E-05,0.3065294,3.255872E-05
0.3073235,2.719158E-05,0.3073235,3.258808E-05
0.3081176,2.098116E-05,0.3081176,3.262419E-05
0.3089118,1.309224E-05,0.3089118,3.264567E-05
0.3097059,-3.524834E-06,0.3097059,3.265402E-05
0.3105,-2.064546E-05,0.3105,3.265463E-05
0.3112941,-2.870222E-05,0.3112941,3.267541E-05
0.3120882,-2.400244E-05,0.3120882,3.271553E-05
0.3128823,-2.131685E-05,0.3128823,3.274356E-05
0.3136765,-3.474479E-05,0.3136765,3.276565E-05
0.3144706,-4.985122E-05,0.3144706,3.282427E-05
0.3152647,-7.167162E-05,0.3152647,3.29446E-05
0.3160588,-9.181353E-05,0.3160588,3.319196E-05
0.3168529,-9.416342E-05,0.3168529,3.359394E-05
0.317647,-5.606165E-05,0.317647,3.401162E-05
0.3184412,2.366674E-05,0.3184412,3.415845E-05
0.3192353,0.0001085985,0.3192353,3.418455E-05
0.3200294,0.0001589532,0.3200294,3.472957E-05
0.3208235,0.0001663386,0.3208235,3.586932E-05
0.3216176,0.0001223621,0.3216176,3.707728E-05
0.3224117,5.48867E-05,0.3224117,3.771482E-05
0.3232059,1.19173E-05,0.3232059,3.78418E-05
0.324,-1.863127E-05,0.324,3.784777E-05
0.3247941,-4.179446E-05,0.3247941,3.786238E-05
0.3255882,-4.951553E-05,0.3255882,3.793577E-05
0.3263823,-4.011597E-05,0.3263823,3.803854E-05
0.3271765,-4.213016E-05,0.3271765,3.810585E-05
0.3279706,-4.951553E-05,0.3279706,3.817995E-05
0.3287647,-4.800488E-05,0.3287647,3.828207E-05
0.3295588,-4.414435E-05,0.3295588,3.837781E-05
0.3303529,-3.743038E-05,0.3303529,3.845858E-05
0.331147,-3.524834E-05,0.331147,3.851654E-05
0.3319412,-2.635233E-05,0.3319412,3.856787E-05
0.3327353,-1.661708E-05,0.3327353,3.859654E-05
0.3335294,-1.309224E-05,0.3335294,3.860793E-05
0.3343235,-1.05745E-05,0.3343235,3.861499E-05
0.3351176,-7.553216E-06,0.3351176,3.86196E-05
0.3359118,-1.661708E-05,0.3359118,3.862196E-05
0.3367059,-2.534523E-05,0.3367059,3.863334E-05
0.3375,-2.903792E-05,0.3375,3.865981E-05
0.3382941,-3.642328E-05,0.3382941,3.869452E-05
0.3390882,-4.246586E-05,0.3390882,3.874908E-05
0.3398823,-4.515145E-05,0.3398823,3.882312E-05
0.3406765,-4.313725E-05,0.3406765,3.890664E-05
0.3414706,-3.558404E-05,0.3414706,3.898273E-05
0.3422647,-2.920577E-05,0.3422647,3.903441E-05
0.3430588,-3.172351E-05,0.3430588,3.90692E-05
0.3438529,-3.30663E-05,0.3438529,3.911019E-05
0.344647,-3.20592E-05,0.344647,3.914753E-05
0.3454412,-2.635233E-05,0.3454412,3.918906E-05
0.3462353,-4.36408E-06,0.3462353,3.921587E-05
0.3470294,1.963836E-05,0.3470294,3.921499E-05
0.3478235,3.776608E-05,0.3478235,3.923064E-05
0.3486176,4.548714E-05,0.3486176,3.928844E-05
0.3494118,3.910887E-05,0.3494118,3.93722E-05
0.3502059,4.145876E-05,0.3502059,3.942921E-05
0.351,4.850843E-05,0.351,3.947906E-05
0.3517941,4.901198E-05,0.3517941,3.952712E-05
0.3525882,4.548714E-05,0.3525882,3.956172E-05
0.3533823,3.27306E-05,0.3533823,3.962549E-05
0.3541765,1.745632E-05,0.3541765,3.966776E-05
0.3549706,8.392462E-07,0.3549706,3.966776E-05
0.3557647,-1.762417E-05,0.3557647,3.965961E-05
0.3565588,-2.836652E-05,0.3565588,3.966878E-05
0.3573529,-3.37377E-05,0.3573529,3.970102E-05
0.3581471,-3.440909E-05,0.3581471,3.974244E-05
0.3589412,-3.508049E-05,0.3589412,3.978281E-05
0.3597353,-3.474479E-05,0.3597353,3.981555E-05
0.3605294,-2.618448E-05,0.3605294,3.981831E-05
0.3613235,-2.131685E-05,0.3613235,3.978969E-05
0.3621176,-2.24918E-05,0.3621176,3.977412E-05
0.3629118,-9.231709E-06,0.3629118,3.97465E-05
0.3637059,8.224612E-06,0.3637059,3.965489E-05
0.3645,1.05745E-05,0.3645,3.952739E-05
0.3652941,6.54612E-06,0.3652941,3.945918E-05
0.3660882,4.867628E-06,0.3660882,3.945722E-05
0.3668824,2.18204E-06,0.3668824,3.94305E-05
0.3676765,-4.867628E-06,0.3676765,3.935071E-05
0.3684706,-1.15816E-05,0.3684706,3.929595E-05
0.3692647,-1.879912E-05,0.3692647,3.926641E-05
0.3700588,-2.702373E-05,0.3700588,3.921654E-05
0.3708529,-2.920577E-05,0.3708529,3.915452E-05
0.3716471,-2.652018E-05,0.3716471,3.911114E-05
0.3724412,-2.366674E-05,0.3724412,3.907749E-05
0.3732353,-2.131685E-05,0.3732353,3.906515E-05
0.3740294,-2.18204E-05,0.3740294,3.907538E-05
0.3748235,-1.829557E-05,0.3748235,3.909475E-05
0.3756177,-1.359579E-05,0.3756177,3.910754E-05
0.3764118,-7.888914E-06,0.3764118,3.911295E-05
0.3772059,-5.706874E-06,0.3772059,3.910378E-05
0.378,-4.196231E-06,0.378,3.907154E-05
0.3787941,-3.524834E-06,0.3787941,3.903788E-05
0.3795882,-3.524834E-06,0.3795882,3.901148E-05
0.3803824,-3.189136E-06,0.3803824,3.89622E-05
0.3811765,-7.217518E-06,0.3811765,3.889174E-05
0.3819706,-1.12459E-05,0.3819706,3.87807E-05
0.3827647,-1.510643E-05,0.3827647,3.856438E-05
0.3835588,-1.09102E-05,0.3835588,3.821648E-05
0.3843529,-9.903105E-06,0.3843529,3.767317E-05
0.3851471,-1.628138E-05,0.3851471,3.714703E-05
0.3859412,-1.795987E-05,0.3859412,3.699453E-05
0.3867353,-1.560998E-05,0.3867353,3.700447E-05
0.3875294,-1.359579E-05,0.3875294,3.660355E-05
0.3883235,-1.661708E-05,0.3883235,3.558011E-05
0.3891176,-2.064546E-05,0.3891176,3.438355E-05
0.3899118,-2.568093E-05,0.3899118,3.361301E-05
0.3907059,-1.225299E-05,0.3907059,3.341823E-05
0.3915,2.853437E-06,0.3915,3.340854E-05
0.3922941,1.15816E-05,0.3922941,3.340656E-05
0.3930882,6.881819E-06,0.3930882,3.338884E-05
0.3938823,-8.392462E-07,0.3938823,3.331933E-05
0.3946765,-6.713969E-06,0.3946765,3.326812E-05
0.3954706,-1.09102E-05,0.3954706,3.320905E-05
0.3962647,-7.217518E-06,0.3962647,3.311394E-05
0.3970588,1.426719E-05,0.3970588,3.299994E-05
0.3978529,3.743038E-05,0.3978529,3.293073E-05
0.398647,4.061952E-05,0.398647,3.296047E-05
0.3994412,3.189136E-05,0.3994412,3.299206E-05
0.4002353,2.920577E-05,0.4002353,3.297413E-05
0.4010294,6.378271E-06,0.4010294,3.292751E-05
0.4018235,-2.467384E-05,0.4018235,3.287869E-05
0.4026176,-3.508049E-05,0.4026176,3.290008E-05
0.4034117,-2.500954E-05,0.4034117,3.295959E-05
0.4042059,6.042573E-06,0.4042059,3.29893E-05
0.405,2.433814E-05,0.405,3.298664E-05
0.4057941,1.393149E-05,0.4057941,3.301183E-05
0.4065882,-2.517739E-06,0.4065882,3.302112E-05
0.4073823,-2.299535E-05,0.4073823,3.301843E-05
0.4081765,-3.843748E-05,0.4081765,3.303996E-05
0.4089706,-3.944457E-05,0.4089706,3.310482E-05
0.4097647,-4.380865E-05,0.4097647,3.317454E-05
0.4105588,-4.917983E-05,0.4105588,3.325536E-05
0.4113529,-4.884413E-05,0.4113529,3.335257E-05
0.412147,-4.481575E-05,0.412147,3.34357E-05
0.4129412,-4.246586E-05,0.4129412,3.349298E-05
0.4137353,-4.179446E-05,0.4137353,3.354853E-05
0.4145294,-3.30663E-05,0.4145294,3.3614E-05
0.4153235,-9.231709E-06,0.4153235,3.364933E-05
0.4161176,1.05745E-05,0.4161176,3.362833E-05
0.4169118,2.047761E-05,0.4169118,3.36048E-05
0.4177059,2.635233E-05,0.4177059,3.359006E-05
0.4185,1.460288E-05,0.4185,3.357627E-05
0.4192941,8.392462E-07,0.4192941,3.355174E-05
0.4200882,-9.567407E-06,0.4200882,3.354425E-05
0.4208823,-1.863127E-05,0.4208823,3.354853E-05
0.4216765,-3.608759E-05,0.4216765,3.355666E-05
0.4224706,-5.203327E-05,0.4224706,3.360479E-05
0.4232647,-7.603571E-05,0.4232647,3.372277E-05
0.4240588,-0.0001070878,0.4240588,3.398942E-05
0.4248529,-0.000115816,0.4248529,3.45202E-05
0.4256471,-7.67071E-05,0.4256471,3.513287E-05
0.4264412,-3.860533E-06,0.4264412,3.539855E-05
0.4272353,8.577096E-05,0.4272353,3.539921E-05
0.4280294,0.0001451896,0.4280294,3.572794E-05
0.4288235,0.0001542535,0.4288235,3.665086E-05
0.4296176,0.0001166552,0.4296176,3.766144E-05
0.4304118,5.891508E-05,0.4304118,3.821046E-05
0.4312059,1.829557E-05,0.4312059,3.833351E-05
0.432,-5.539025E-06,0.432,3.8333E-05
0.4327941,-1.963836E-05,0.4327941,3.832393E-05
0.4335882,-2.635233E-05,0.4335882,3.833691E-05
0.4343823,-1.594568E-05,0.4343823,3.836405E-05
0.4351765,-8.224612E-06,0.4351765,3.83744E-05
0.4359706,-7.553216E-06,0.4359706,3.837525E-05
0.4367647,-1.426719E-05,0.4367647,3.836793E-05
0.4375588,-2.534523E-05,0.4375588,3.8363E-05
0.4383529,-2.568093E-05,0.4383529,3.838039E-05
0.4391471,-1.812772E-05,0.4391471,3.840045E-05
0.4399412,-1.560998E-05,0.4399412,3.841239E-05
0.4407353,-1.896696E-05,0.4407353,3.842232E-05
0.4415294,-2.836652E-05,0.4415294,3.843656E-05
0.4423235,-3.038071E-05,0.4423235,3.846464E-05
0.4431176,-3.088426E-05,0.4431176,3.849187E-05
0.4439118,-3.038071E-05,0.4439118,3.850475E-05
0.4447059,-3.3402E-05,0.4447059,3.849538E-05
0.4455,-2.987716E-05,0.4455,3.850584E-05
0.4462941,-2.349889E-05,0.4462941,3.853352E-05
0.4470882,-2.1149E-05,0.4470882,3.85563E-05
0.4478824,-9.231709E-06,0.4478824,3.85689E-05
0.4486765,3.189136E-06,0.4486765,3.856823E-05
0.4494706,1.510643E-06,0.4494706,3.856864E-05
0.4502647,5.035477E-07,0.4502647,3.856521E-05
0.4510588,3.692683E-06,0.4510588,3.855239E-05
0.4518529,7.217518E-06,0.4518529,3.852746E-05
0.4526471,9.231709E-06,0.4526471,3.849866E-05
0.4534412,5.539025E-06,0.4534412,3.847007E-05
0.4542353,-1.174945E-06,0.4542353,3.845311E-05
0.4550294,8.392462E-07,0.4550294,3.843931E-05
0.4558235,5.203327E-06,0.4558235,3.842902E-05
0.4566177,2.517739E-06,0.4566177,3.842635E-05
0.4574118,-2.853437E-06,0.4574118,3.84261E-05
0.4582059,-1.326009E-05,0.4582059,3.842639E-05
0.459,-1.326009E-05,0.459,3.843343E-05
0.4597941,-1.376364E-05,0.4597941,3.843894E-05
0.4605882,-1.661708E-05,0.4605882,3.844386E-05
0.4613824,-1.963836E-05,0.4613824,3.845272E-05
0.4621765,-2.517739E-05,0.4621765,3.846673E-05
0.4629706,-2.316319E-05,0.4629706,3.848493E-05
0.4637647,-2.131685E-05,0.4637647,3.849277E-05
0.4645588,-1.695277E-05,0.4645588,3.850535E-05
0.4653529,-4.867628E-06,0.4653529,3.851466E-05
0.4661471,-2.853437E-06,0.4661471,3.851491E-05
0.4669412,-2.014191E-06,0.4669412,3.85131E-05
0.4677353,-3.524834E-06,0.4677353,3.849993E-05
0.4685294,-8.224612E-06,0.4685294,3.849036E-05
0.4693235,-1.208515E-05,0.4693235,3.848434E-05
0.4701176,-1.493858E-05,0.4701176,3.848008E-05
0.4709118,-1.913481E-05,0.4709118,3.847835E-05
0.4717059,-1.544213E-05,0.4717059,3.847287E-05
0.4725,3.189136E-06,0.4725,3.845099E-05
0.4732941,2.131685E-05,0.4732941,3.841648E-05
0.4740882,2.836652E-05,0.4740882,3.83927E-05
0.4748823,2.400244E-05,0.4748823,3.837601E-05
0.4756765,1.678492E-05,0.4756765,3.835636E-05
0.4764706,9.231709E-06,0.4764706,3.834243E-05
0.4772647,-8.392462E-07,0.4772647,3.833585E-05
0.4780588,-9.903105E-06,0.4780588,3.833537E-05
0.4788529,-1.309224E-05,0.4788529,3.833832E-05
0.479647,-1.795987E-05,0.479647,3.834337E-05
0.4804412,-2.064546E-05,0.4804412,3.835499E-05
0.4812353,-2.165255E-05,0.4812353,3.837061E-05
0.4820294,-2.18204E-05,0.4820294,3.838992E-05
0.4828235,-2.786297E-05,0.4828235,3.840344E-05
0.4836176,-3.30663E-05,0.4836176,3.842175E-05
0.4844117,-3.575189E-05,0.4844117,3.84556E-05
0.4852059,-3.390555E-05,0.4852059,3.850342E-05
0.486,-3.474479E-05,0.486,3.854959E-05
0.4867941,-3.793393E-05,0.4867941,3.859858E-05
0.4875882,-3.541619E-05,0.4875882,3.865544E-05
0.4883823,-3.910887E-05,0.4883823,3.869928E-05
0.4891765,-4.313725E-05,0.4891765,3.87534E-05
0.4899706,-4.481575E-05,0.4899706,3.8818E-05
0.4907647,-3.172351E-05,0.4907647,3.88871E-05
0.4915588,-3.860533E-06,0.4915588,3.890601E-05
0.4923529,1.258869E-05,0.4923529,3.886185E-05
0.493147,1.292439E-05,0.493147,3.874923E-05
0.4939412,2.517739E-06,0.4939412,3.845025E-05
0.4947353,-9.231709E-06,0.4947353,3.788111E-05
0.4955294,-1.560998E-05,0.4955294,3.739189E-05
0.4963235,-5.035477E-07,0.4963235,3.731794E-05
0.4971176,2.383459E-05,0.4971176,3.726025E-05
0.4979118,2.903792E-05,0.4979118,3.675181E-05
0.4987059,2.652018E-05,0.4987059,3.60014E-05
0.4995,1.829557E-05,0.4995,3.544347E-05
0.5002941,6.210422E-06,0.5002941,3.522707E-05
0.5010882,-1.007095E-06,0.5010882,3.518753E-05
0.5018824,9.231709E-06,0.5018824,3.517962E-05
0.5026765,2.165255E-05,0.5026765,3.518173E-05
0.5034706,1.997406E-05,0.5034706,3.518489E-05
0.5042647,9.231709E-06,0.5042647,3.514121E-05
0.5050588,2.18204E-06,0.5050588,3.511072E-05
0.5058529,-7.553216E-06,0.5058529,3.509344E-05
0.5066471,-1.762417E-05,0.5066471,3.509409E-05
0.5074412,-2.333104E-05,0.5074412,3.510511E-05
0.5082353,-2.467384E-05,0.5082353,3.511702E-05
0.5090294,-2.702373E-05,0.5090294,3.514268E-05
0.5098235,-2.198825E-05,0.5098235,3.517436E-05
0.5106176,-1.695277E-05,0.5106176,3.518245E-05
0.5114118,-1.644922E-05,0.5114118,3.51564E-05
0.5122059,-1.477073E-05,0.5122059,3.509137E-05
0.513,-1.594568E-05,0.513,3.50251E-05
0.5137941,-1.846342E-05,0.5137941,3.497631E-05
0.5145882,-1.644922E-05,0.5145882,3.491728E-05
0.5153823,-1.05745E-05,0.5153823,3.482367E-05
0.5161765,-4.196231E-06,0.5161765,3.4724E-05
0.5169706,2.18204E-06,0.5169706,3.461674E-05
0.5177647,1.510643E-06,0.5177647,3.449219E-05
0.5185588,-1.174945E-06,0.5185588,3.43909E-05
0.5193529,-7.553216E-06,0.5193529,3.436611E-05
0.520147,-1.02388E-05,0.520147,3.436481E-05
0.5209412,-1.225299E-05,0.5209412,3.436966E-05
0.5217353,-1.762417E-05,0.5217353,3.437528E-05
0.5225294,-1.393149E-05,0.5225294,3.438691E-05
0.5233235,-9.567407E-06,0.5233235,3.438647E-05
0.5241176,-6.378271E-06,0.5241176,3.438356E-05
0.5249118,-3.860533E-06,0.5249118,3.438534E-05
0.5257059,-1.678492E-07,0.5257059,3.438315E-05
0.5265,-2.18204E-06,0.5265,3.438106E-05
0.5272941,-5.874723E-06,0.5272941,3.438099E-05
0.5280882,-1.05745E-05,0.5280882,3.438254E-05
0.5288823,-2.366674E-05,0.5288823,3.438573E-05
0.5296764,-3.105211E-05,0.5296764,3.440649E-05
0.5304706,-3.541619E-05,0.5304706,3.444558E-05
0.5312647,-4.46479E-05,0.5312647,3.449051E-05
0.5320588,-5.421531E-05,0.5320588,3.457348E-05
0.5328529,-7.133593E-05,0.5328529,3.470663E-05
0.5336471,-9.85275E-05,0.5336471,3.493738E-05
0.5344412,-0.0001055772,0.5344412,3.537678E-05
0.5352353,-6.730755E-05,0.5352353,3.587173E-05
0.5360294,9.231709E-06,0.5360294,3.606242E-05
0.5368235,9.684901E-05,0.5368235,3.60514E-05
0.5376176,0.000148043,0.5376176,3.645247E-05
0.5384117,0.0001468681,0.5384117,3.739086E-05
0.5392058,9.449913E-05,0.5392058,3.829186E-05
0.54,1.292439E-05,0.54,3.865382E-05
0.5407941,-3.40734E-05,0.5407941,3.865232E-05
0.5415882,-3.642328E-05,0.5415882,3.869174E-05
0.5423824,-3.172351E-05,0.5423824,3.873832E-05
0.5431765,-3.23949E-05,0.5431765,3.877281E-05
0.5439706,-3.3402E-05,0.5439706,3.880314E-05
0.5447647,-3.524834E-05,0.5447647,3.883467E-05
0.5455588,-2.769513E-05,0.5455588,3.886924E-05
0.5463529,-1.02388E-05,0.5463529,3.888024E-05
0.547147,1.09102E-05,0.547147,3.886412E-05
0.5479411,2.18204E-05,0.5479411,3.886318E-05
0.5487353,5.874723E-06,0.5487353,3.887956E-05
0.5495294,-1.510643E-06,0.5495294,3.88761E-05
0.5503235,9.399558E-06,0.5503235,3.886664E-05
0.5511177,1.460288E-05,0.5511177,3.884763E-05
0.5519118,1.527428E-05,0.5519118,3.882454E-05
0.5527059,1.258869E-05,0.5527059,3.881488E-05
0.5535,4.36408E-06,0.5535,3.882082E-05
0.5542941,-7.217518E-06,0.5542941,3.881905E-05
0.5550882,-1.544213E-05,0.5550882,3.881075E-05
0.5558823,-2.333104E-05,0.5558823,3.880681E-05
0.5566764,-2.551309E-05,0.5566764,3.88045E-05
0.5574706,-2.803082E-05,0.5574706,3.880087E-05
0.5582647,-3.105211E-05,0.5582647,3.881505E-05
0.5590588,-2.635233E-05,0.5590588,3.884756E-05
0.559853,-2.21561E-05,0.559853,3.88755E-05
0.5606471,-2.333104E-05,0.5606471,3.887815E-05
0.5614412,-2.635233E-05,0.5614412,3.88667E-05
0.5622353,-3.004501E-05,0.5622353,3.887155E-05
0.5630294,-3.121996E-05,0.5630294,3.888991E-05
0.5638235,-3.440909E-05,0.5638235,3.888039E-05
0.5646176,-3.675899E-05,0.5646176,3.882706E-05
0.5654117,-3.575189E-05,0.5654117,3.86715E-05
0.5662059,-3.088426E-05,0.5662059,3.837589E-05
0.567,-1.19173E-05,0.567,3.804614E-05
0.5677941,1.980621E-05,0.5677941,3.792034E-05
0.5685883,5.018692E-05,0.5685883,3.791329E-05
0.5693824,5.874724E-05,0.5693824,3.752172E-05
0.5701765,5.001907E-05,0.5701765,3.658422E-05
0.5709706,3.30663E-05,0.5709706,3.547192E-05
0.5717647,2.24918E-05,0.5717647,3.484331E-05
0.5725588,1.426719E-05,0.5725588,3.472856E-05
0.5733529,5.203327E-06,0.5733529,3.473138E-05
0.574147,-6.881819E-06,0.574147,3.47167E-05
0.5749412,-1.795987E-05,0.5749412,3.463867E-05
0.5757353,-2.265965E-05,0.5757353,3.454065E-05
0.5765294,-2.400244E-05,0.5765294,3.449009E-05
0.5773235,-2.568093E-05,0.5773235,3.44347E-05
0.5781176,-2.568093E-05,0.5781176,3.435172E-05
0.5789118,-2.970932E-05,0.5789118,3.427538E-05
0.5797059,-2.568093E-05,0.5797059,3.422582E-05
0.5805,-1.258869E-05,0.5805,3.41913E-05
0.5812941,-6.54612E-06,0.5812941,3.414079E-05
0.5820882,-5.203327E-06,0.5820882,3.411038E-05
0.5828823,-2.517739E-06,0.5828823,3.409875E-05
0.5836765,-5.539025E-06,0.5836765,3.409104E-05
0.5844706,-7.888914E-06,0.5844706,3.408725E-05
0.5852647,-1.426719E-05,0.5852647,3.408749E-05
0.5860588,-2.299535E-05,0.5860588,3.40841E-05
0.5868529,-2.030976E-05,0.5868529,3.40788E-05
0.587647,-2.568093E-05,0.587647,3.405867E-05
0.5884412,-2.467384E-05,0.5884412,3.402746E-05
0.5892353,-2.098116E-05,0.5892353,3.397152E-05
0.5900294,-1.930266E-05,0.5900294,3.389651E-05
0.5908235,-1.728847E-05,0.5908235,3.382652E-05
0.5916176,-1.225299E-05,0.5916176,3.378095E-05
0.5924118,-1.02388E-05,0.5924118,3.374781E-05
0.5932059,-1.15816E-05,0.5932059,3.370524E-05
0.594,-1.15816E-05,0.594,3.365989E-05
0.5947941,-6.881819E-06,0.5947941,3.361759E-05
0.5955882,-3.860533E-06,0.5955882,3.358693E-05
0.5963823,-1.510643E-06,0.5963823,3.358673E-05
0.5971764,-3.189136E-06,0.5971764,3.356855E-05
0.5979706,-9.399558E-06,0.5979706,3.350131E-05
0.5987647,-1.02388E-05,0.5987647,3.340703E-05
0.5995588,-1.09102E-05,0.5995588,3.333905E-05
0.6003529,-1.007095E-05,0.6003529,3.326255E-05
0.6011471,-9.063859E-06,0.6011471,3.315459E-05
0.6019412,-1.15816E-05,0.6019412,3.304297E-05
0.6027353,-1.225299E-05,0.6027353,3.29496E-05
0.6035294,-6.881819E-06,0.6035294,3.290505E-05
0.6043235,-2.349889E-06,0.6043235,3.289259E-05
0.6051176,5.035477E-07,0.6051176,3.289283E-05
0.6059117,-1.678492E-06,0.6059117,3.28778E-05
0.6067058,-4.867628E-06,0.6067058,3.283894E-05
0.6075,-1.09102E-05,0.6075,3.278485E-05
0.6082941,-1.174945E-05,0.6082941,3.273309E-05
0.6090882,-1.12459E-05,0.6090882,3.267989E-05
0.6098824,-9.903105E-06,0.6098824,3.262719E-05
0.6106765,-5.539025E-06,0.6106765,3.25985E-05
0.6114706,-1.510643E-06,0.6114706,3.25778E-05
0.6122647,3.692683E-06,0.6122647,3.255317E-05
0.6130588,4.196231E-06,0.6130588,3.254967E-05
0.6138529,5.035477E-06,0.6138529,3.254722E-05
0.614647,2.853437E-06,0.614647,3.254299E-05
0.6154411,-3.860533E-06,0.6154411,3.254129E-05
0.6162353,-9.735256E-06,0.6162353,3.254086E-05
0.6170294,-1.359579E-05,0.6170294,3.254527E-05
0.6178235,-1.426719E-05,0.6178235,3.255315E-05
0.6186177,-1.02388E-05,0.6186177,3.255655E-05
0.6194118,-1.09102E-05,0.6194118,3.254439E-05
0.6202059,-8.560311E-06,0.6202059,3.251446E-05
0.621,-8.89601E-06,0.621,3.247625E-05
0.6217941,-1.225299E-05,0.6217941,3.244563E-05
0.6225882,-1.292439E-05,0.6225882,3.242551E-05
0.6233823,-1.426719E-05,0.6233823,3.241139E-05
0.6241764,-1.19173E-05,0.6241764,3.239799E-05
0.6249706,-9.567407E-06,0.6249706,3.238853E-05
0.6257647,-8.89601E-06,0.6257647,3.238394E-05
0.6265588,-1.02388E-05,0.6265588,3.238477E-05
0.627353,-1.863127E-05,0.627353,3.238832E-05
0.6281471,-2.803082E-05,0.6281471,3.240452E-05
0.6289412,-4.045167E-05,0.6289412,3.244249E-05
0.6297353,-5.186542E-05,0.6297353,3.25221E-05
0.6305294,-5.891508E-05,0.6305294,3.265305E-05
0.6313235,-8.107119E-05,0.6313235,3.281935E-05
0.6321176,-0.0001012131,0.6321176,3.313063E-05
0.6329117,-7.67071E-05,0.6329117,3.360858E-05
0.6337059,-9.063859E-06,0.6337059,3.388062E-05
0.6345,8.610666E-05,0.6345,3.387987E-05
0.6352941,0.0001488823,0.6352941,3.421424E-05
0.6360883,0.0001609674,0.6360883,3.521617E-05
0.6368824,0.0001233692,0.6368824,3.635823E-05
0.6376765,5.690089E-05,0.6376765,3.701085E-05
0.6384706,5.706874E-06,0.6384706,3.713805E-05
0.6392647,-2.433814E-05,0.6392647,3.712117E-05
0.6400588,-4.129091E-05,0.6400588,3.711829E-05
0.6408529,-5.62295E-05,0.6408529,3.718493E-05
0.641647,-4.448005E-05,0.641647,3.731973E-05
0.6424412,-3.038071E-05,0.6424412,3.739834E-05
0.6432353,-2.769513E-05,0.6432353,3.743561E-05
0.6440294,-3.172351E-05,0.6440294,3.746818E-05
0.6448235,-3.105211E-05,0.6448235,3.750902E-05
0.6456177,-2.719158E-05,0.6456177,3.754488E-05
0.6464118,-2.568093E-05,0.6464118,3.757402E-05
0.6472059,-2.131685E-05,0.6472059,3.759334E-05
0.648,-1.393149E-05,0.648,3.755322E-05
0.6487941,-9.903105E-06,0.6487941,3.749144E-05
0.6495882,-5.874723E-06,0.6495882,3.745239E-05
0.6503823,-8.392462E-07,0.6503823,3.741757E-05
0.6511765,-4.531929E-06,0.6511765,3.741587E-05
0.6519706,-1.141375E-05,0.6519706,3.739083E-05
0.6527647,-1.628138E-05,0.6527647,3.734394E-05
0.6535588,-2.165255E-05,0.6535588,3.732857E-05
0.6543529,-2.601663E-05,0.6543529,3.7347E-05
0.6551471,-3.23949E-05,0.6551471,3.73506E-05
0.6559412,-3.642328E-05,0.6559412,3.738705E-05
0.6567353,-3.457694E-05,0.6567353,3.744325E-05
0.6575294,-2.131685E-05,0.6575294,3.747159E-05
0.6583235,-1.326009E-05,0.6583235,3.742809E-05
0.6591176,-6.378271E-06,0.6591176,3.736933E-05
0.6599118,5.203327E-06,0.6599118,3.72892E-05
0.6607059,2.467384E-05,0.6607059,3.718693E-05
0.6615,5.018692E-05,0.6615,3.711077E-05
0.6622941,5.55581E-05,0.6622941,3.713265E-05
0.6630882,4.145876E-05,0.6630882,3.718765E-05
0.6638823,1.661708E-05,0.6638823,3.718645E-05
0.6646765,-2.18204E-06,0.6646765,3.715144E-05
0.6654706,-8.392462E-06,0.6654706,3.714799E-05
0.6662647,-1.05745E-05,0.6662647,3.714622E-05
0.6670588,-9.567407E-06,0.6670588,3.713303E-05
0.6678529,-1.02388E-05,0.6678529,3.710717E-05
0.6686471,-6.54612E-06,0.6686471,3.710252E-05
0.6694412,-1.02388E-05,0.6694412,3.710432E-05
0.6702353,-1.19173E-05,0.6702353,3.71049E-05
0.6710294,-1.225299E-05,0.6710294,3.709609E-05
0.6718235,-9.399558E-06,0.6718235,3.70466E-05
0.6726176,-1.02388E-05,0.6726176,3.693386E-05
0.6734117,-1.628138E-05,0.6734117,3.66883E-05
0.6742059,-1.829557E-05,0.6742059,3.619881E-05
0.675,-1.812772E-05,0.675,3.561885E-05
0.6757941,-2.165255E-05,0.6757941,3.536962E-05
0.6765882,-2.18204E-05,0.6765882,3.539005E-05
0.6773823,-2.131685E-05,0.6773823,3.50791E-05
0.6781765,-1.594568E-05,0.6781765,3.412999E-05
0.6789706,-1.309224E-05,0.6789706,3.301346E-05
0.6797647,-1.359579E-05,0.6797647,3.235886E-05
0.6805588,-1.326009E-05,0.6805588,3.219674E-05
0.6813529,-1.426719E-05,0.6813529,3.218888E-05
0.682147,-1.326009E-05,0.682147,3.219743E-05
0.6829411,-1.292439E-05,0.6829411,3.218705E-05
0.6837353,-1.426719E-05,0.6837353,3.216095E-05
0.6845294,-1.19173E-05,0.6845294,3.215844E-05
0.6853235,-7.721065E-06,0.6853235,3.216212E-05
0.6861176,-5.035477E-06,0.6861176,3.216225E-05
0.6869118,-1.510643E-06,0.6869118,3.215342E-05
0.6877059,-2.18204E-06,0.6877059,3.212171E-05
0.6885,-6.881819E-06,0.6885,3.208924E-05
0.6892941,-5.539025E-06,0.6892941,3.207528E-05
0.6900882,-3.021286E-06,0.6900882,3.20647E-05
0.6908823,-1.678492E-07,0.6908823,3.204728E-05
0.6916764,6.54612E-06,0.6916764,3.200728E-05
0.6924706,7.049668E-06,0.6924706,3.196346E-05
0.6932647,2.853437E-06,0.6932647,3.191839E-05
0.6940588,-2.18204E-06,0.6940588,3.187271E-05
0.6948529,-6.210422E-06,0.6948529,3.181717E-05
0.6956471,-8.728161E-06,0.6956471,3.177439E-05
0.6964412,-7.553216E-06,0.6964412,3.175053E-05
0.6972353,-6.881819E-06,0.6972353,3.173095E-05
0.6980294,-9.567407E-06,0.6980294,3.172905E-05
0.6988235,-1.510643E-05,0.6988235,3.173314E-05
0.6996176,-2.333104E-05,0.6996176,3.174447E-05
0.7004117,-3.105211E-05,0.7004117,3.177175E-05
0.7012058,-3.591974E-05,0.7012058,3.181936E-05
0.702,-4.380865E-05,0.702,3.188126E-05
0.7027941,-4.179446E-05,0.7027941,3.197273E-05
0.7035882,-4.213016E-05,0.7035882,3.205808E-05
0.7043824,-3.927672E-05,0.7043824,3.214606E-05
0.7051765,-2.803082E-05,0.7051765,3.222235E-05
0.7059706,-1.326009E-05,0.7059706,3.225982E-05
0.7067647,-3.356985E-07,0.7067647,3.226818E-05
0.7075588,5.706874E-06,0.7075588,3.226778E-05
0.7083529,1.12459E-05,0.7083529,3.226071E-05
0.709147,1.510643E-05,0.709147,3.225827E-05
0.7099411,1.695277E-05,0.7099411,3.226019E-05
0.7107353,1.795987E-05,0.7107353,3.226074E-05
0.7115294,2.064546E-05,0.7115294,3.225763E-05
0.7123235,1.12459E-05,0.7123235,3.224738E-05
0.7131177,3.189136E-06,0.7131177,3.222712E-05
0.7139118,5.874723E-06,0.7139118,3.220517E-05
0.7147059,5.203327E-06,0.7147059,3.219266E-05
0.7155,-2.853437E-06,0.7155,3.219283E-05
0.7162941,-6.042573E-06,0.7162941,3.219283E-05
0.7170882,-6.210422E-06,0.7170882,3.219443E-05
0.7178823,-1.15816E-05,0.7178823,3.219573E-05
0.7186764,-1.863127E-05,0.7186764,3.219901E-05
0.7194706,-2.568093E-05,0.7194706,3.220895E-05
0.7202647,-2.702373E-05,0.7202647,3.223052E-05
0.7210588,-1.426719E-05,0.7210588,3.224851E-05
0.721853,-4.867628E-06,0.721853,3.224678E-05
0.7226471,-6.713969E-07,0.7226471,3.224745E-05
0.7234412,-3.021286E-06,0.7234412,3.222503E-05
0.7242353,-1.05745E-05,0.7242353,3.218569E-05
0.7250294,-1.141375E-05,0.7250294,3.216272E-05
0.7258235,-1.141375E-05,0.7258235,3.215521E-05
0.7266176,-1.258869E-05,0.7266176,3.215745E-05
0.7274117,-2.014191E-05,0.7274117,3.216526E-05
0.7282059,-3.37377E-05,0.7282059,3.218048E-05
0.729,-4.951553E-05,0.729,3.222829E-05
0.7297941,-6.932174E-05,0.7297941,3.233332E-05
0.7305882,-9.617762E-05,0.7305882,3.254828E-05
0.7313824,-0.0001149767,0.7313824,3.297509E-05
0.7321765,-9.617762E-05,0.7321765,3.358483E-05
0.7329706,-3.3402E-05,0.7329706,3.398422E-05
0.7337647,6.294347E-05,0.7337647,3.398527E-05
0.7345588,0.0001461967,0.7345588,3.411078E-05
0.7353529,0.0001779202,0.7353529,3.504215E-05
0.736147,0.0001498894,0.736147,3.639948E-05
0.7369412,8.090334E-05,0.7369412,3.730804E-05
0.7377353,1.577783E-05,0.7377353,3.753319E-05
0.7385294,-2.433814E-05,0.7385294,3.747882E-05
0.7393235,-4.280156E-05,0.7393235,3.742488E-05
0.7401176,-5.404745E-05,0.7401176,3.741738E-05
0.7409118,-4.515145E-05,0.7409118,3.749877E-05
0.7417059,-2.568093E-05,0.7417059,3.758461E-05
0.7425,-2.198825E-05,0.7425,3.760583E-05
0.7432941,-2.433814E-05,0.7432941,3.761923E-05
0.7440882,-2.131685E-05,0.7440882,3.764403E-05
0.7448823,-1.829557E-05,0.7448823,3.765964E-05
0.7456765,-1.628138E-05,0.7456765,3.766349E-05
0.7464706,-2.030976E-05,0.7464706,3.767468E-05
0.7472647,-2.081331E-05,0.7472647,3.766811E-05
0.7480588,-2.568093E-05,0.7480588,3.765077E-05
0.7488529,-2.920577E-05,0.7488529,3.764892E-05
0.749647,-2.836652E-05,0.749647,3.767083E-05
0.7504412,-2.450599E-05,0.7504412,3.77032E-05
0.7512353,-2.265965E-05,0.7512353,3.772851E-05
0.7520294,-2.21561E-05,0.7520294,3.774658E-05
0.7528235,-2.601663E-05,0.7528235,3.774751E-05
0.7536176,-3.23949E-05,0.7536176,3.775923E-05
0.7544118,-3.440909E-05,0.7544118,3.779987E-05
0.7552059,-2.887007E-05,0.7552059,3.784951E-05
0.756,-1.712062E-05,0.756,3.788216E-05
0.7567941,5.874723E-06,0.7567941,3.788143E-05
0.7575882,2.131685E-05,0.7575882,3.785999E-05
0.7583823,2.1149E-05,0.7583823,3.78535E-05
0.7591764,1.393149E-05,0.7591764,3.784159E-05
0.7599706,4.699779E-06,0.7599706,3.782941E-05
0.7607647,-2.18204E-06,0.7607647,3.781824E-05
0.7615588,-7.553216E-06,0.7615588,3.780705E-05
0.7623529,-1.393149E-05,0.7623529,3.780026E-05
0.7631471,-1.695277E-05,0.7631471,3.779773E-05
0.7639412,-1.980621E-05,0.7639412,3.779547E-05
0.7647353,-1.779202E-05,0.7647353,3.78006E-05
0.7655294,-1.309224E-05,0.7655294,3.780922E-05
0.7663235,-1.393149E-05,0.7663235,3.78157E-05
0.7671176,-1.762417E-05,0.7671176,3.782367E-05
0.7679117,-1.644922E-05,0.7679117,3.783665E-05
0.7687058,-9.063859E-06,0.7687058,3.784798E-05
0.7695,-6.378271E-06,0.7695,3.784903E-05
0.7702941,-2.014191E-06,0.7702941,3.784633E-05
0.7710882,7.217518E-06,0.7710882,3.784019E-05
0.7718824,2.400244E-05,0.7718824,3.782931E-05
0.7726765,3.20592E-05,0.7726765,3.784538E-05
0.7734706,2.450599E-05,0.7734706,3.788476E-05
0.7742647,1.728847E-05,0.7742647,3.790828E-05
0.7750588,1.628138E-05,0.7750588,3.792021E-05
0.7758529,1.426719E-05,0.7758529,3.793134E-05
0.776647,7.553216E-06,0.776647,3.793968E-05
0.7774411,4.531929E-06,0.7774411,3.794063E-05
0.7782353,-3.356985E-07,0.7782353,3.79368E-05
0.7790294,-3.021286E-06,0.7790294,3.791328E-05
0.7798235,-3.021286E-06,0.7798235,3.787315E-05
0.7806177,-7.049668E-06,0.7806177,3.782076E-05
0.7814118,-1.19173E-05,0.7814118,3.773884E-05
0.7822059,-1.426719E-05,0.7822059,3.762062E-05
0.783,-1.863127E-05,0.783,3.741327E-05
0.7837941,-2.131685E-05,0.7837941,3.701273E-05
0.7845882,-2.433814E-05,0.7845882,3.654983E-05
0.7853823,-2.635233E-05,0.7853823,3.637787E-05
0.7861764,-2.232395E-05,0.7861764,3.640452E-05
0.7869706,-2.098116E-05,0.7869706,3.601395E-05
0.7877647,-2.030976E-05,0.7877647,3.505151E-05
0.7885588,-2.165255E-05,0.7885588,3.407678E-05
0.789353,-1.963836E-05,0.789353,3.367908E-05
0.7901471,-1.510643E-05,0.7901471,3.368941E-05
0.7909412,-9.231709E-06,0.7909412,3.364529E-05
0.7917353,-6.042573E-06,0.7917353,3.358649E-05
0.7925294,-4.531929E-06,0.7925294,3.354047E-05
0.7933235,-6.210422E-06,0.7933235,3.349159E-05
0.7941176,-8.224612E-06,0.7941176,3.344034E-05
0.7949117,-1.560998E-05,0.7949117,3.338435E-05
0.7957059,-1.426719E-05,0.7957059,3.335938E-05
0.7965,-1.594568E-05,0.7965,3.336409E-05
0.7972941,-1.510643E-05,0.7972941,3.337054E-05
0.7980883,-1.258869E-05,0.7980883,3.335871E-05
0.7988824,-7.217518E-06,0.7988824,3.336463E-05
0.7996765,-9.903105E-06,0.7996765,3.3367E-05
0.8004706,-1.510643E-05,0.8004706,3.336747E-05
0.8012647,-1.695277E-05,0.8012647,3.336818E-05
0.8020588,-1.326009E-05,0.8020588,3.337076E-05
0.8028529,-1.05745E-05,0.8028529,3.337159E-05
0.803647,-1.326009E-05,0.803647,3.337602E-05
0.8044412,-2.131685E-05,0.8044412,3.338192E-05
0.8052353,-2.568093E-05,0.8052353,3.339222E-05
0.8060294,-2.836652E-05,0.8060294,3.339771E-05
0.8068235,-2.534523E-05,0.8068235,3.340504E-05
0.8076177,-1.812772E-05,0.8076177,3.339821E-05
0.8084118,-1.426719E-05,0.8084118,3.336789E-05
0.8092059,-9.399558E-06,0.8092059,3.334446E-05
0.81,-4.867628E-06,0.81,3.332522E-05
0.8107941,-6.54612E-06,0.8107941,3.330034E-05
0.8115882,-7.721065E-06,0.8115882,3.326916E-05
0.8123823,1.678492E-06,0.8123823,3.322879E-05
0.8131765,7.721065E-06,0.8131765,3.318218E-05
0.8139706,7.553216E-06,0.8139706,3.312818E-05
0.8147647,6.378271E-06,0.8147647,3.306592E-05
0.8155588,1.174945E-06,0.8155588,3.300626E-05
0.8163529,3.860533E-06,0.8163529,3.296028E-05
0.8171471,8.89601E-06,0.8171471,3.295414E-05
0.8179412,7.721065E-06,0.8179412,3.293901E-05
0.8187353,2.517739E-06,0.8187353,3.281991E-05
0.8195294,4.36408E-06,0.8195294,3.265234E-05
0.8203235,-8.392462E-07,0.8203235,3.253104E-05
0.8211176,-4.196231E-06,0.8211176,3.247751E-05
0.8219118,-4.531929E-06,0.8219118,3.245356E-05
0.8227059,-4.028382E-06,0.8227059,3.244458E-05
0.8235,-1.107805E-05,0.8235,3.244404E-05
0.8242941,-1.15816E-05,0.8242941,3.244774E-05
0.8250882,-3.860533E-06,0.8250882,3.24385E-05
0.8258823,1.342794E-06,0.8258823,3.241401E-05
0.8266765,-1.678492E-07,0.8266765,3.238579E-05
0.8274706,1.846342E-06,0.8274706,3.235335E-05
0.8282647,4.531929E-06,0.8282647,3.232104E-05
0.8290588,1.007095E-06,0.8290588,3.227853E-05
0.8298529,-6.210422E-06,0.8298529,3.224603E-05
0.8306471,-9.231709E-06,0.8306471,3.224011E-05
0.8314412,-1.980621E-05,0.8314412,3.224221E-05
0.8322353,-2.836652E-05,0.8322353,3.226024E-05
0.8330294,-2.819867E-05,0.8330294,3.229962E-05
0.8338235,-3.004501E-05,0.8338235,3.233728E-05
0.8346176,-3.910887E-05,0.8346176,3.237864E-05
0.8354117,-4.515145E-05,0.8354117,3.244379E-05
0.8362059,-3.978027E-05,0.8362059,3.251781E-05
0.837,-3.23949E-05,0.837,3.257505E-05
0.8377941,-2.047761E-05,0.8377941,3.259411E-05
0.8385882,-1.258869E-05,0.8385882,3.258485E-05
0.8393824,-1.09102E-05,0.8393824,3.257108E-05
0.8401765,-5.874723E-06,0.8401765,3.255868E-05
0.8409706,-1.678492E-06,0.8409706,3.254575E-05
0.8417647,-4.867628E-06,0.8417647,3.253854E-05
0.8425588,-1.174945E-05,0.8425588,3.253457E-05
0.8433529,-1.493858E-05,0.8433529,3.253476E-05
0.844147,-1.493858E-05,0.844147,3.253912E-05
0.8449411,-1.560998E-05,0.8449411,3.254772E-05
0.8457353,-1.695277E-05,0.8457353,3.255891E-05
0.8465294,-1.644922E-05,0.8465294,3.257285E-05
0.8473235,-1.678492E-05,0.8473235,3.258558E-05
0.8481176,-1.846342E-05,0.8481176,3.259502E-05
0.8489118,-2.668803E-05,0.8489118,3.260656E-05
0.8497059,-3.071641E-05,0.8497059,3.263551E-05
0.8505,-1.913481E-05,0.8505,3.267657E-05
0.8512941,5.539025E-06,0.8512941,3.269041E-05
0.8520882,3.105211E-05,0.8520882,3.268537E-05
0.8528823,4.448005E-05,0.8528823,3.272501E-05
0.8536764,4.817273E-05,0.8536764,3.281884E-05
0.8544706,4.280156E-05,0.8544706,3.293097E-05
0.8552647,3.004501E-05,0.8552647,3.301943E-05
0.8560588,1.628138E-05,0.8560588,3.30628E-05
0.8568529,3.356985E-06,0.8568529,3.307442E-05
0.8576471,-4.699779E-06,0.8576471,3.306923E-05
0.8584412,-1.359579E-05,0.8584412,3.306365E-05
0.8592353,-1.359579E-05,0.8592353,3.306646E-05
0.8600294,-1.426719E-05,0.8600294,3.307064E-05
0.8608235,-1.577783E-05,0.8608235,3.307896E-05
0.8616176,-1.628138E-05,0.8616176,3.309083E-05
0.8624117,-1.141375E-05,0.8624117,3.310293E-05
0.8632059,-6.210422E-06,0.8632059,3.310835E-05
0.864,-5.203327E-06,0.864,3.310898E-05
0.8647941,-6.210422E-06,0.8647941,3.310989E-05
0.8655882,-9.903105E-06,0.8655882,3.311103E-05
0.8663824,-8.224612E-06,0.8663824,3.311119E-05
0.8671765,-2.517739E-06,0.8671765,3.310555E-05
0.8679706,-2.18204E-06,0.8679706,3.309606E-05
0.8687647,-5.203327E-06,0.8687647,3.309125E-05
0.8695588,-1.695277E-05,0.8695588,3.308682E-05
0.8703529,-2.786297E-05,0.8703529,3.309713E-05
0.871147,-3.709468E-05,0.871147,3.313065E-05
0.8719411,-6.210422E-05,0.8719411,3.318952E-05
0.8727353,-9.198138E-05,0.8727353,3.336609E-05
0.8735294,-0.0001079271,0.8735294,3.375784E-05
0.8743235,-9.164568E-05,0.8743235,3.42963E-05
0.8751177,-3.27306E-05,0.8751177,3.467986E-05
0.8759118,5.857939E-05,0.8759118,3.472538E-05
0.8767059,0.0001324331,0.8767059,3.48776E-05
0.8775,0.0001555963,0.8775,3.565384E-05
0.8782941,0.0001240406,0.8782941,3.668511E-05
0.8790882,4.901198E-05,0.8790882,3.727715E-05
0.8798823,-1.460288E-05,0.8798823,3.726485E-05
0.8806764,-4.448005E-05,0.8806764,3.712538E-05
0.8814706,-5.287251E-05,0.8814706,3.692781E-05
0.8822647,-6.277562E-05,0.8822647,3.660522E-05
0.8830588,-5.253681E-05,0.8830588,3.652059E-05
0.8838529,-3.105211E-05,0.8838529,3.663716E-05
0.8846471,-2.534523E-05,0.8846471,3.635574E-05
0.8854412,-2.500954E-05,0.8854412,3.540047E-05
0.8862353,-1.695277E-05,0.8862353,3.424424E-05
0.8870294,-9.903105E-06,0.8870294,3.354269E-05
0.8878235,-9.231709E-06,0.8878235,3.339331E-05
0.8886176,-1.527428E-05,0.8886176,3.339582E-05
0.8894117,-2.098116E-05,0.8894117,3.33787E-05
0.8902059,-2.433814E-05,0.8902059,3.331831E-05
0.891,-3.172351E-05,0.891,3.319528E-05
0.8917941,-3.457694E-05,0.8917941,3.314862E-05
0.8925882,-2.467384E-05,0.8925882,3.316171E-05
0.8933823,-1.594568E-05,0.8933823,3.315411E-05
0.8941765,-1.12459E-05,0.8941765,3.311797E-05
0.8949706,-8.224612E-06,0.8949706,3.307766E-05
0.8957647,8.224612E-06,0.8957647,3.304531E-05
0.8965588,1.913481E-05,0.8965588,3.301677E-05
0.8973529,1.527428E-05,0.8973529,3.301252E-05
0.898147,1.15816E-05,0.898147,3.301441E-05
0.8989412,1.242084E-05,0.8989412,3.301615E-05
0.8997353,1.05745E-05,0.8997353,3.302192E-05
0.9005294,1.225299E-05,0.9005294,3.302728E-05
0.9013235,1.174945E-05,0.9013235,3.303353E-05
0.9021176,1.05745E-05,0.9021176,3.303391E-05
0.9029117,4.867628E-06,0.9029117,3.302652E-05
0.9037059,-2.517739E-06,0.9037059,3.300505E-05
0.9045,-7.888914E-06,0.9045,3.297268E-05
0.9052941,-1.258869E-05,0.9052941,3.292497E-05
0.9060882,-1.292439E-05,0.9060882,3.286843E-05
0.9068823,-1.309224E-05,0.9068823,3.281856E-05
0.9076765,-2.047761E-05,0.9076765,3.280483E-05
0.9084706,-2.333104E-05,0.9084706,3.281665E-05
0.9092647,-2.316319E-05,0.9092647,3.284108E-05
0.9100588,-2.366674E-05,0.9100588,3.286577E-05
0.9108529,-1.762417E-05,0.9108529,3.286341E-05
0.911647,-1.493858E-05,0.911647,3.275624E-05
0.9124411,-1.728847E-05,0.9124411,3.261674E-05
0.9132353,-1.795987E-05,0.9132353,3.254734E-05
0.9140294,-1.762417E-05,0.9140294,3.254962E-05
0.9148235,-1.393149E-05,0.9148235,3.256458E-05
0.9156176,-1.09102E-05,0.9156176,3.257062E-05
0.9164118,-1.342794E-05,0.9164118,3.257098E-05
0.9172059,-1.376364E-05,0.9172059,3.257532E-05
0.918,-1.258869E-05,0.918,3.257945E-05
0.9187941,-1.040665E-05,0.9187941,3.25851E-05
0.9195882,-1.460288E-05,0.9195882,3.258527E-05
0.9203823,-1.393149E-05,0.9203823,3.258875E-05
0.9211764,-1.560998E-05,0.9211764,3.25909E-05
0.9219705,-1.695277E-05,0.9219705,3.259849E-05
0.9227647,-1.359579E-05,0.9227647,3.26074E-05
0.9235588,-1.12459E-05,0.9235588,3.260348E-05
0.9243529,-7.888914E-06,0.9243529,3.259331E-05
0.9251471,-4.196231E-06,0.9251471,3.258029E-05
0.9259412,-5.706874E-06,0.9259412,3.255823E-05
0.9267353,-7.721065E-06,0.9267353,3.253653E-05
0.9275294,-8.224612E-06,0.9275294,3.251721E-05
0.9283235,-8.224612E-06,0.9283235,3.250807E-05
0.9291176,-6.378271E-06,0.9291176,3.250298E-05
0.9299117,3.021286E-06,0.9299117,3.249592E-05
0.9307058,1.19173E-05,0.9307058,3.248775E-05
0.9315,1.527428E-05,0.9315,3.248474E-05
0.9322941,1.02388E-05,0.9322941,3.248755E-05
0.9330882,3.692683E-06,0.9330882,3.24845E-05
0.9338824,-6.713969E-07,0.9338824,3.247519E-05
0.9346765,-4.531929E-06,0.9346765,3.246825E-05
0.9354706,-8.89601E-06,0.9354706,3.246633E-05
0.9362647,-6.881819E-06,0.9362647,3.246897E-05
0.9370588,-6.881819E-06,0.9370588,3.247118E-05
0.9378529,-9.231709E-06,0.9378529,3.247327E-05
0.938647,-5.539025E-06,0.938647,3.247513E-05
0.9394411,-6.378271E-06,0.9394411,3.247513E-05
0.9402353,-9.903105E-06,0.9402353,3.247667E-05
0.9410294,-1.19173E-05,0.9410294,3.248148E-05
0.9418235,-1.225299E-05,0.9418235,3.248634E-05
0.9426177,-1.040665E-05,0.9426177,3.249127E-05
0.9434118,-9.567407E-06,0.9434118,3.249617E-05
0.9442059,-1.15816E-05,0.9442059,3.250042E-05
0.945,-1.242084E-05,0.945,3.250512E-05
0.9457941,-1.712062E-05,0.9457941,3.250894E-05
0.9465882,-1.896696E-05,0.9465882,3.25205E-05
0.9473823,-1.712062E-05,0.9473823,3.253579E-05
0.9481764,-1.863127E-05,0.9481764,3.254566E-05
0.9489706,-2.433814E-05,0.9489706,3.255147E-05
0.9497647,-2.568093E-05,0.9497647,3.255382E-05
0.9505588,-2.668803E-05,0.9505588,3.253891E-05
0.951353,-3.189136E-05,0.951353,3.251062E-05
0.9521471,-3.3402E-05,0.9521471,3.24664E-05
0.9529412,-3.40734E-05,0.9529412,3.243543E-05
0.9537353,-1.628138E-05,0.9537353,3.240528E-05
0.9545294,1.258869E-05,0.9545294,3.234244E-05
0.9553235,4.078737E-05,0.9553235,3.231154E-05
0.9561176,4.682994E-05,0.9561176,3.238478E-05
0.9569117,3.23949E-05,0.9569117,3.249243E-05
0.9577059,1.762417E-05,0.9577059,3.254222E-05
0.9585,5.874723E-06,0.9585,3.255123E-05
0.9592941,-3.356985E-07,0.9592941,3.254176E-05
0.9600882,-6.210422E-06,0.9600882,3.25277E-05
0.9608824,-1.19173E-05,0.9608824,3.251379E-05
0.9616765,-1.040665E-05,0.9616765,3.249987E-05
0.9624706,-1.292439E-05,0.9624706,3.249898E-05
0.9632647,-1.426719E-05,0.9632647,3.250666E-05
0.9640588,-1.560998E-05,0.9640588,3.251494E-05
0.9648529,-2.28275E-05,0.9648529,3.252555E-05
0.965647,-3.575189E-05,0.965647,3.255065E-05
0.9664412,-5.404745E-05,0.9664412,3.261134E-05
0.9672353,-8.493171E-05,0.9672353,3.275178E-05
0.9680294,-0.0001089342,0.9680294,3.309418E-05
0.9688235,-8.677805E-05,0.9688235,3.364389E-05
0.9696176,-3.20592E-05,0.9696176,3.396753E-05
0.9704118,6.260777E-05,0.9704118,3.398147E-05
0.9712059,0.0001404898,0.9712059,3.415517E-05
0.972,0.0001701991,0.972,3.50622E-05
0.9727941,0.0001451896,0.9727941,3.635396E-05
0.9735882,7.335011E-05,0.9735882,3.726547E-05
0.9743823,2.131685E-05,0.9743823,3.748991E-05
0.9751765,-4.867628E-06,0.9751765,3.750368E-05
0.9759706,-2.870222E-05,0.9759706,3.749915E-05
0.9767647,-5.38796E-05,0.9767647,3.75274E-05
0.9775588,-5.4551E-05,0.9775588,3.763321E-05
0.9783529,-4.380865E-05,0.9783529,3.771088E-05
0.979147,-4.649424E-05,0.979147,3.768839E-05
0.9799412,-4.078737E-05,0.9799412,3.757652E-05
0.9807353,-3.541619E-05,0.9807353,3.725365E-05
0.9815294,-4.095522E-05,0.9815294,3.673864E-05
0.9823235,-4.817273E-05,0.9823235,3.640894E-05
0.9831176,-4.766919E-05,0.9831176,3.64616E-05
0.9839118,-4.666209E-05,0.9839118,3.638773E-05
0.9847059,-3.944457E-05,0.9847059,3.553777E-05
0.9855,-2.400244E-05,0.9855,3.416247E-05
0.9862941,-6.210422E-06,0.9862941,3.31264E-05
0.9870882,1.19173E-05,0.9870882,3.281214E-05
0.9878823,2.064546E-05,0.9878823,3.280695E-05
0.9886764,2.568093E-05,0.9886764,3.279888E-05
0.9894706,2.467384E-05,0.9894706,3.274191E-05
0.9902647,1.460288E-05,0.9902647,3.262926E-05
0.9910588,6.378271E-06,0.9910588,3.254006E-05
0.9918529,1.678492E-06,0.9918529,3.250976E-05
0.9926471,-4.867628E-06,0.9926471,3.248621E-05
0.9934412,-1.359579E-05,0.9934412,3.245832E-05
0.9942353,-1.846342E-05,0.9942353,3.24451E-05
0.9950294,-2.232395E-05,0.9950294,3.24454E-05
0.9958235,-1.762417E-05,0.9958235,3.245685E-05
0.9966176,-8.89601E-06,0.9966176,3.245185E-05
0.9974117,-1.174945E-05,0.9974117,3.243447E-05
0.9982058,-1.577783E-05,0.9982058,3.240886E-05
0.999,-2.316319E-05,0.999,3.237917E-05
0.9997941,-2.954147E-05,0.9997941,3.236598E-05
1.000588,-2.970932E-05,1.000588,3.237936E-05
1.001382,-3.004501E-05,1.001382,3.239752E-05
1.002176,-2.601663E-05,1.002176,3.241775E-05
1.002971,-2.601663E-05,1.002971,3.241775E-05
1.003765,-2.098116E-05,1.003765,3.239945E-05
1.004559,-1.997406E-05,1.004559,3.236287E-05
1.005353,-1.795987E-05,1.005353,3.234149E-05
1.006147,-1.09102E-05,1.006147,3.234293E-05
1.006941,-7.888914E-06,1.006941,3.23471E-05
1.007735,-6.54612E-06,1.007735,3.232779E-05
1.008529,5.035477E-07,1.008529,3.230786E-05
1.009323,1.174945E-06,1.009323,3.22983E-05
1.010118,-3.356985E-07,1.010118,3.229728E-05
1.010912,-2.853437E-06,1.010912,3.229705E-05
1.011706,-7.888914E-06,1.011706,3.229464E-05
1.0125,-9.567407E-06,1.0125,3.228814E-05
1.013294,-8.560311E-06,1.013294,3.227848E-05
1.014088,-9.231709E-06,1.014088,3.226274E-05
1.014882,-1.15816E-05,1.014882,3.225132E-05
1.015676,-5.874723E-06,1.015676,3.224948E-05
1.016471,7.049668E-06,1.016471,3.22416E-05
1.017265,1.762417E-05,1.017265,3.222871E-05
1.018059,2.467384E-05,1.018059,3.223069E-05
1.018853,1.913481E-05,1.018853,3.22567E-05
1.019647,9.231709E-06,1.019647,3.227276E-05
1.020441,1.678492E-06,1.020441,3.227676E-05
1.021235,-4.36408E-06,1.021235,3.227433E-05
1.022029,-1.174945E-05,1.022029,3.224683E-05
1.022824,-1.661708E-05,1.022824,3.220287E-05
1.023618,-1.493858E-05,1.023618,3.218682E-05
1.024412,-9.735256E-06,1.024412,3.218308E-05
1.025206,-8.89601E-06,1.025206,3.217465E-05
1.026,-7.553216E-06,1.026,3.216849E-05
1.026794,-1.426719E-05,1.026794,3.216849E-05
1.027588,-1.628138E-05,1.027588,3.217755E-05
1.028382,-9.903105E-06,1.028382,3.219066E-05
1.029176,-1.510643E-05,1.029176,3.219506E-05
1.029971,-2.14847E-05,1.029971,3.220589E-05
1.030765,-2.198825E-05,1.030765,3.222625E-05
1.031559,-2.366674E-05,1.031559,3.224312E-05
1.032353,-2.635233E-05,1.032353,3.226072E-05
1.033147,-2.903792E-05,1.033147,3.227786E-05
1.033941,-3.23949E-05,1.033941,3.229704E-05
1.034735,-3.071641E-05,1.034735,3.231956E-05
1.035529,-2.232395E-05,1.035529,3.233183E-05
1.036324,-3.524834E-06,1.036324,3.233183E-05
1.037118,1.947051E-05,1.037118,3.231076E-05
1.037912,2.920577E-05,1.037912,3.230911E-05
1.038706,2.24918E-05,1.038706,3.232804E-05
1.0395,1.393149E-05,1.0395,3.233396E-05
1.040294,1.05745E-05,1.040294,3.233228E-05
1.041088,6.210422E-06,1.041088,3.233359E-05
1.041882,1.510643E-06,1.041882,3.233369E-05
1.042676,-6.54612E-06,1.042676,3.233279E-05
1.043471,-1.292439E-05,1.043471,3.2333E-05
1.044265,-1.376364E-05,1.044265,3.23379E-05
1.045059,-1.762417E-05,1.045059,3.233523E-05
1.045853,-2.433814E-05,1.045853,3.23405E-05
1.046647,-2.853437E-05,1.046647,3.235714E-05
1.047441,-2.383459E-05,1.047441,3.238597E-05
1.048235,-1.443504E-05,1.048235,3.24061E-05
1.049029,-1.326009E-05,1.049029,3.241378E-05
1.049824,-1.326009E-05,1.049824,3.24176E-05
1.050618,-1.577783E-05,1.050618,3.241502E-05
1.051412,-1.762417E-05,1.051412,3.241314E-05
1.052206,-1.728847E-05,1.052206,3.241976E-05
1.053,-1.930266E-05,1.053,3.242894E-05
1.053794,-2.165255E-05,1.053794,3.24386E-05
1.054588,-2.24918E-05,1.054588,3.243931E-05
1.055382,-2.349889E-05,1.055382,3.243177E-05
1.056176,-1.628138E-05,1.056176,3.241937E-05
1.056971,-1.292439E-05,1.056971,3.240084E-05
1.057765,-1.644922E-05,1.057765,3.239289E-05
1.058559,-1.376364E-05,1.058559,3.239619E-05
1.059353,-3.021286E-06,1.059353,3.240116E-05
1.060147,3.189136E-06,1.060147,3.240044E-05
1.060941,3.189136E-06,1.060941,3.239884E-05
1.061735,-1.007095E-06,1.061735,3.239641E-05
1.062529,-1.678492E-07,1.062529,3.239631E-05
1.063323,-1.678492E-07,1.063323,3.239339E-05
1.064118,-7.049668E-06,1.064118,3.239058E-05
1.064912,-4.699779E-06,1.064912,3.239103E-05
1.065706,-1.510643E-06,1.065706,3.239204E-05
1.0665,-1.678492E-07,1.0665,3.239142E-05
1.067294,-3.356985E-07,1.067294,3.238754E-05
1.068088,-3.356985E-06,1.068088,3.238461E-05
1.068882,-6.210422E-06,1.068882,3.238485E-05
1.069676,-1.292439E-05,1.069676,3.238581E-05
1.070471,-2.735943E-05,1.070471,3.239399E-05
1.071265,-5.119402E-05,1.071265,3.24299E-05
1.072059,-8.459602E-05,1.072059,3.255733E-05
1.072853,-0.0001042344,1.072853,3.29047E-05
1.073647,-7.838559E-05,1.073647,3.34205E-05
1.074441,-1.02388E-05,1.074441,3.370564E-05
1.075235,8.342107E-05,1.075235,3.370989E-05
1.076029,0.000145861,1.076029,3.403694E-05
1.076823,0.0001555963,1.076823,3.501813E-05
1.077618,0.0001097734,1.077618,3.61021E-05
1.078412,3.3402E-05,1.078412,3.662885E-05
1.079206,-1.728847E-05,1.079206,3.667727E-05
1.08,-3.776608E-05,1.08,3.668857E-05
1.080794,-4.548714E-05,1.080794,3.674673E-05
1.081588,-5.119402E-05,1.081588,3.681932E-05
1.082382,-3.910887E-05,1.082382,3.689778E-05
1.083176,-2.366674E-05,1.083176,3.692946E-05
1.083971,-1.594568E-05,1.083971,3.691468E-05
1.084765,-6.378271E-06,1.084765,3.685963E-05
1.085559,-2.517739E-06,1.085559,3.677322E-05
1.086353,-1.510643E-06,1.086353,3.670491E-05
1.087147,-5.539025E-06,1.087147,3.665945E-05
1.087941,-6.713969E-06,1.087941,3.664257E-05
1.088735,-6.713969E-06,1.088735,3.663764E-05
1.089529,-7.049668E-06,1.089529,3.663442E-05
1.090324,-6.378271E-06,1.090324,3.663508E-05
1.091118,-6.378271E-06,1.091118,3.663673E-05
1.091912,-8.392462E-06,1.091912,3.663747E-05
1.092706,-8.224612E-06,1.092706,3.663453E-05
1.0935,-8.224612E-06,1.0935,3.662777E-05
1.094294,-6.210422E-06,1.094294,3.662101E-05
1.095088,-9.903105E-06,1.095088,3.661209E-05
1.095882,-1.359579E-05,1.095882,3.660385E-05
1.096676,-1.963836E-05,1.096676,3.660012E-05
1.097471,-2.870222E-05,1.097471,3.660464E-05
1.098265,-3.776608E-05,1.098265,3.662565E-05
1.099059,-3.289845E-05,1.099059,3.665668E-05
1.099853,-2.131685E-05,1.099853,3.666271E-05
1.100647,-7.385367E-06,1.100647,3.666654E-05
1.101441,-1.678492E-07,1.101441,3.666758E-05
1.102235,-5.035477E-07,1.102235,3.662568E-05
1.103029,1.510643E-06,1.103029,3.653958E-05
1.103824,5.035477E-07,1.103824,3.64384E-05
1.104618,-8.392462E-07,1.104618,3.635827E-05
1.105412,-7.553216E-06,1.105412,3.631874E-05
1.106206,-7.385367E-06,1.106206,3.630962E-05
1.107,2.014191E-06,1.107,3.631151E-05
1.107794,-2.18204E-06,1.107794,3.631072E-05
1.108588,-1.09102E-05,1.108588,3.630282E-05
1.109382,-8.224612E-06,1.109382,3.629993E-05
1.110176,-7.385367E-06,1.110176,3.629397E-05
1.110971,-7.217518E-06,1.110971,3.628544E-05
1.111765,-8.392462E-06,1.111765,3.627609E-05
1.112559,-1.594568E-05,1.112559,3.627347E-05
1.113353,-1.846342E-05,1.113353,3.628293E-05
1.114147,-1.15816E-05,1.114147,3.62967E-05
1.114941,-1.05745E-05,1.114941,3.63009E-05
1.115735,-1.326009E-05,1.115735,3.63015E-05
1.116529,-1.594568E-05,1.116529,3.630625E-05
1.117324,-1.728847E-05,1.117324,3.631712E-05
1.118118,-1.443504E-05,1.118118,3.633001E-05
1.118912,-1.225299E-05,1.118912,3.633796E-05
1.119706,-1.409934E-05,1.119706,3.633194E-05
1.1205,-1.426719E-05,1.1205,3.630662E-05
1.121294,-1.393149E-05,1.121294,3.625516E-05
1.122088,-9.903105E-06,1.122088,3.609393E-05
1.122882,-4.867628E-06,1.122882,3.57231E-05
1.123676,-1.510643E-06,1.123676,3.520112E-05
1.124471,-3.189136E-06,1.124471,3.481922E-05
1.125265,-2.18204E-06,1.125265,3.477065E-05
1.126059,-1.510643E-06,1.126059,3.461336E-05
1.126853,-4.196231E-06,1.126853,3.3797E-05
1.127647,-7.553216E-06,1.127647,3.263726E-05
1.128441,-7.888914E-06,1.128441,3.188059E-05
1.129235,-1.15816E-05,1.129235,3.17635E-05
1.130029,-1.863127E-05,1.130029,3.175954E-05
1.130823,-2.232395E-05,1.130823,3.167764E-05
1.131618,-2.299535E-05,1.131618,3.156196E-05
1.132412,-2.433814E-05,1.132412,3.138934E-05
1.133206,-2.702373E-05,1.133206,3.127918E-05
1.134,-2.232395E-05,1.134,3.126727E-05
1.134794,-8.224612E-06,1.134794,3.125993E-05
1.135588,5.203327E-06,1.135588,3.123151E-05
1.136382,1.728847E-05,1.136382,3.121823E-05
1.137177,2.098116E-05,1.137177,3.122847E-05
1.137971,8.560311E-06,1.137971,3.124657E-05
1.138765,6.378271E-06,1.138765,3.123841E-05
1.139559,7.888914E-06,1.139559,3.121804E-05
1.140353,4.531929E-06,1.140353,3.119099E-05
1.141147,8.392462E-07,1.141147,3.114062E-05
1.141941,-8.392462E-07,1.141941,3.107946E-05
1.142735,-5.203327E-06,1.142735,3.104829E-05
1.143529,-9.567407E-06,1.143529,3.103664E-05
1.144323,-1.779202E-05,1.144323,3.103484E-05
1.145118,-1.896696E-05,1.145118,3.104761E-05
1.145912,-2.299535E-05,1.145912,3.106259E-05
1.146706,-2.618448E-05,1.146706,3.107093E-05
1.1475,-1.762417E-05,1.1475,3.10941E-05
1.148294,-8.89601E-06,1.148294,3.110314E-05
1.149088,-4.867628E-06,1.149088,3.109929E-05
1.149882,-6.881819E-06,1.149882,3.109478E-05
1.150676,-1.007095E-05,1.150676,3.108951E-05
1.151471,-1.242084E-05,1.151471,3.108763E-05
1.152265,-1.728847E-05,1.152265,3.108981E-05
1.153059,-2.903792E-05,1.153059,3.11039E-05
1.153853,-3.23949E-05,1.153853,3.114672E-05
1.154647,-2.299535E-05,1.154647,3.119715E-05
1.155441,-1.09102E-05,1.155441,3.121604E-05
1.156235,1.510643E-06,1.156235,3.121359E-05
1.157029,8.89601E-06,1.157029,3.120496E-05
1.157824,1.544213E-05,1.157824,3.11876E-05
1.158618,1.460288E-05,1.158618,3.117197E-05
1.159412,8.89601E-06,1.159412,3.115546E-05
1.160206,9.903105E-06,1.160206,3.113086E-05
1.161,7.217518E-06,1.161,3.111999E-05
1.161794,8.392462E-07,1.161794,3.111123E-05
1.162588,-3.524834E-06,1.162588,3.109597E-05
1.163382,-9.063859E-06,1.163382,3.108009E-05
1.164176,-1.930266E-05,1.164176,3.106838E-05
1.164971,-2.064546E-05,1.164971,3.107752E-05
1.165765,-2.21561E-05,1.165765,3.109326E-05
1.166559,-3.23949E-05,1.166559,3.110916E-05
1.167353,-4.313725E-05,1.167353,3.115315E-05
1.168147,-6.361486E-05,1.168147,3.124004E-05
1.168941,-8.778516E-05,1.168941,3.144016E-05
1.169735,-0.0001077592,1.169735,3.18174E-05
1.170529,-9.95346E-05,1.170529,3.238378E-05
1.171324,-4.951553E-05,1.171324,3.285551E-05
1.172118,3.37377E-05,1.172118,3.296024E-05
1.172912,0.0001168231,1.172912,3.300627E-05
1.173706,0.0001613031,1.173706,3.365227E-05
1.1745,0.0001555963,1.1745,3.485884E-05
1.175294,9.349202E-05,1.175294,3.594698E-05
1.176088,2.987716E-05,1.176088,3.633068E-05
1.176882,-7.217518E-06,1.176882,3.636718E-05
1.177676,-2.668803E-05,1.177676,3.636649E-05
1.178471,-4.481575E-05,1.178471,3.639471E-05
1.179265,-4.582284E-05,1.179265,3.64807E-05
1.180059,-2.534523E-05,1.180059,3.657184E-05
1.180853,-2.165255E-05,1.180853,3.659362E-05
1.181647,-2.232395E-05,1.181647,3.660387E-05
1.182441,-2.24918E-05,1.182441,3.662099E-05
1.183235,-2.568093E-05,1.183235,3.664238E-05
1.184029,-2.903792E-05,1.184029,3.667101E-05
1.184824,-3.071641E-05,1.184824,3.670672E-05
1.185618,-3.172351E-05,1.185618,3.67442E-05
1.186412,-2.903792E-05,1.186412,3.678573E-05
1.187206,-3.23949E-05,1.187206,3.682017E-05
1.188,-3.474479E-05,1.188,3.686184E-05
1.188794,-3.491264E-05,1.188794,3.691263E-05
1.189588,-3.004501E-05,1.189588,3.696342E-05
1.190382,-2.433814E-05,1.190382,3.699807E-05
1.191176,-1.829557E-05,1.191176,3.701745E-05
1.191971,-1.376364E-05,1.191971,3.702538E-05
1.192765,-8.224612E-06,1.192765,3.702887E-05
1.193559,-3.189136E-06,1.193559,3.702785E-05
1.194353,-2.18204E-06,1.194353,3.702251E-05
1.195147,-5.035477E-07,1.195147,3.701608E-05
1.195941,-1.678492E-07,1.195941,3.700348E-05
1.196735,3.860533E-06,1.196735,3.6988E-05
1.197529,1.342794E-06,1.197529,3.697602E-05
1.198323,1.846342E-06,1.198323,3.696114E-05
1.199118,-2.18204E-06,1.199118,3.693577E-05
1.199912,-4.196231E-06,1.199912,3.690753E-05
1.200706,-2.853437E-06,1.200706,3.687754E-05
1.2015,-5.035477E-06,1.2015,3.683395E-05
1.202294,-7.721065E-06,1.202294,3.678679E-05
1.203088,-1.376364E-05,1.203088,3.673908E-05
1.203882,-1.426719E-05,1.203882,3.67358E-05
1.204677,-1.695277E-05,1.204677,3.673776E-05
1.205471,-2.030976E-05,1.205471,3.667806E-05
1.206265,-1.762417E-05,1.206265,3.660068E-05
1.207059,-1.695277E-05,1.207059,3.656852E-05
1.207853,-1.812772E-05,1.207853,3.656751E-05
1.208647,-1.527428E-05,1.208647,3.658031E-05
1.209441,-2.030976E-05,1.209441,3.659046E-05
1.210235,-2.584878E-05,1.210235,3.660673E-05
1.211029,-2.098116E-05,1.211029,3.662961E-05
1.211823,-1.15816E-05,1.211823,3.664404E-05
1.212618,3.189136E-06,1.212618,3.664261E-05
1.213412,1.19173E-05,1.213412,3.66342E-05
1.214206,1.225299E-05,1.214206,3.662978E-05
1.215,1.712062E-05,1.215,3.661365E-05
1.215794,1.947051E-05,1.215794,3.657079E-05
1.216588,1.728847E-05,1.216588,3.645993E-05
1.217382,1.393149E-05,1.217382,3.615669E-05
1.218176,1.728847E-05,1.218176,3.563891E-05
1.218971,1.577783E-05,1.218971,3.531433E-05
1.219765,1.007095E-05,1.219765,3.527919E-05
1.220559,4.028382E-06,1.220559,3.510643E-05
1.221353,-2.853437E-06,1.221353,3.420022E-05
1.222147,-3.524834E-06,1.222147,3.282418E-05
1.222941,-7.553216E-06,1.222941,3.178573E-05
1.223735,-1.460288E-05,1.223735,3.151793E-05
1.224529,-2.400244E-05,1.224529,3.150574E-05
1.225324,-3.038071E-05,1.225324,3.153365E-05
1.226118,-2.568093E-05,1.226118,3.153866E-05
1.226912,-1.628138E-05,1.226912,3.142518E-05
1.227706,-1.02388E-05,1.227706,3.128752E-05
1.2285,-7.721065E-06,1.2285,3.119505E-05
1.229294,-2.853437E-06,1.229294,3.108756E-05
1.230088,2.014191E-06,1.230088,3.100265E-05
1.230882,3.356985E-07,1.230882,3.093836E-05
1.231676,-2.517739E-06,1.231676,3.085192E-05
1.232471,-5.539025E-06,1.232471,3.073224E-05
1.233265,-6.881819E-06,1.233265,3.061587E-05
1.234059,-7.888914E-06,1.234059,3.050489E-05
1.234853,-8.560311E-06,1.234853,3.042682E-05
1.235647,-1.258869E-05,1.235647,3.04005E-05
1.236441,-2.098116E-05,1.236441,3.040677E-05
1.237235,-2.433814E-05,1.237235,3.042239E-05
1.238029,-2.24918E-05,1.238029,3.043108E-05
1.238824,-2.383459E-05,1.238824,3.042304E-05
1.239618,-2.299535E-05,1.239618,3.042091E-05
1.240412,-2.702373E-05,1.240412,3.043742E-05
1.241206,-3.038071E-05,1.241206,3.047348E-05
1.242,-2.870222E-05,1.242,3.052152E-05
1.242794,-2.349889E-05,1.242794,3.056324E-05
1.243588,-7.553216E-06,1.243588,3.058237E-05
1.244382,1.225299E-05,1.244382,3.056759E-05
1.245176,1.409934E-05,1.245176,3.054944E-05
1.245971,9.231709E-06,1.245971,3.054362E-05
1.246765,-1.174945E-06,1.246765,3.054393E-05
1.247559,-1.779202E-05,1.247559,3.05368E-05
1.248353,-1.963836E-05,1.248353,3.054033E-05
1.249147,-1.544213E-05,1.249147,3.053246E-05
1.249941,-1.712062E-05,1.249941,3.049937E-05
1.250735,-2.064546E-05,1.250735,3.046857E-05
1.251529,-2.14847E-05,1.251529,3.044366E-05
1.252324,-1.661708E-05,1.252324,3.04324E-05
1.253118,-1.258869E-05,1.253118,3.041143E-05
1.253912,-1.560998E-05,1.253912,3.039667E-05
1.254706,-8.89601E-06,1.254706,3.038853E-05
1.2555,2.853437E-06,1.2555,3.037577E-05
1.256294,1.393149E-05,1.256294,3.036995E-05
1.257088,2.349889E-05,1.257088,3.037687E-05
1.257882,2.400244E-05,1.257882,3.040355E-05
1.258676,2.064546E-05,1.258676,3.04337E-05
1.259471,1.275654E-05,1.259471,3.045592E-05
1.260265,8.392462E-06,1.260265,3.046442E-05
1.261059,5.203327E-06,1.261059,3.046768E-05
1.261853,-1.007095E-06,1.261853,3.046584E-05
1.262647,-1.05745E-05,1.262647,3.046111E-05
1.263441,-1.846342E-05,1.263441,3.046312E-05
1.264235,-2.18204E-05,1.264235,3.047648E-05
1.265029,-2.383459E-05,1.265029,3.049435E-05
1.265823,-2.198825E-05,1.265823,3.05222E-05
1.266618,-2.467384E-05,1.266618,3.054482E-05
1.267412,-3.390555E-05,1.267412,3.056036E-05
1.268206,-4.682994E-05,1.268206,3.058853E-05
1.269,-6.697185E-05,1.269,3.068348E-05
1.269794,-9.315633E-05,1.269794,3.091098E-05
1.270588,-0.0001092699,1.270588,3.13547E-05
1.271382,-8.426032E-05,1.271382,3.195437E-05
1.272177,-1.594568E-05,1.272177,3.229942E-05
1.272971,8.073549E-05,1.272971,3.229835E-05
1.273765,0.0001515679,1.273765,3.260723E-05
1.274559,0.0001619745,1.274559,3.370595E-05
1.275353,0.0001216907,1.275353,3.49198E-05
1.276147,4.682994E-05,1.276147,3.558612E-05
1.276941,-4.531929E-06,1.276941,3.567504E-05
1.277735,-2.937362E-05,1.277735,3.566412E-05
1.278529,-4.213016E-05,1.278529,3.569825E-05
1.279323,-5.421531E-05,1.279323,3.576717E-05
1.280118,-4.313725E-05,1.280118,3.587731E-05
1.280912,-2.568093E-05,1.280912,3.593839E-05
1.281706,-2.131685E-05,1.281706,3.594279E-05
1.2825,-2.635233E-05,1.2825,3.593216E-05
1.283294,-2.786297E-05,1.283294,3.592556E-05
1.284088,-2.836652E-05,1.284088,3.591346E-05
1.284882,-2.719158E-05,1.284882,3.59073E-05
1.285676,-2.232395E-05,1.285676,3.591799E-05
1.286471,-1.963836E-05,1.286471,3.593953E-05
1.287265,-1.812772E-05,1.287265,3.593981E-05
1.288059,-1.661708E-05,1.288059,3.591658E-05
1.288853,-1.393149E-05,1.288853,3.590639E-05
1.289647,-5.539025E-06,1.289647,3.590639E-05
1.290441,7.049668E-06,1.290441,3.590279E-05
1.291235,6.042573E-06,1.291235,3.590328E-05
1.292029,1.174945E-06,1.292029,3.59048E-05
1.292824,-1.174945E-06,1.292824,3.590296E-05
1.293618,-6.378271E-06,1.293618,3.589561E-05
1.294412,-1.05745E-05,1.294412,3.588901E-05
1.295206,-1.258869E-05,1.295206,3.588019E-05
1.296,-1.560998E-05,1.296,3.586093E-05
1.296794,-1.661708E-05,1.296794,3.583559E-05
1.297588,-2.21561E-05,1.297588,3.582262E-05
1.298382,-2.333104E-05,1.298382,3.583517E-05
1.299176,-2.887007E-05,1.299176,3.585154E-05
1.299971,-3.524834E-05,1.299971,3.588074E-05
1.300765,-4.53193E-05,1.300765,3.59248E-05
1.301559,-4.582284E-05,1.301559,3.600199E-05
1.302353,-3.675899E-05,1.302353,3.608155E-05
1.303147,-1.560998E-05,1.303147,3.612471E-05
1.303941,7.553216E-06,1.303941,3.611479E-05
1.304735,2.131685E-05,1.304735,3.609499E-05
1.305529,2.887007E-05,1.305529,3.609068E-05
1.306324,3.256275E-05,1.306324,3.611575E-05
1.307118,2.719158E-05,1.307118,3.615511E-05
1.307912,2.165255E-05,1.307912,3.617576E-05
1.308706,1.15816E-05,1.308706,3.618805E-05
1.3095,-2.517739E-06,1.3095,3.619355E-05
1.310294,-4.531929E-06,1.310294,3.619338E-05
1.311088,-1.174945E-06,1.311088,3.619384E-05
1.311882,-2.853437E-06,1.311882,3.619385E-05
1.312676,-4.531929E-06,1.312676,3.619421E-05
1.313471,-5.874723E-06,1.313471,3.619511E-05
1.314265,-5.203327E-06,1.314265,3.619444E-05
1.315059,-9.903105E-06,1.315059,3.619467E-05
1.315853,-1.493858E-05,1.315853,3.619888E-05
1.316647,-1.493858E-05,1.316647,3.620869E-05
1.317441,-1.09102E-05,1.317441,3.62185E-05
1.318235,-1.225299E-05,1.318235,3.622324E-05
1.319029,-1.09102E-05,1.319029,3.622814E-05
1.319824,-6.210422E-06,1.319824,3.622603E-05
1.320618,-1.678492E-07,1.320618,3.619481E-05
1.321412,4.196231E-06,1.321412,3.607933E-05
1.322206,1.510643E-06,1.322206,3.576287E-05
1.323,-5.539025E-06,1.323,3.527589E-05
1.323794,-1.09102E-05,1.323794,3.499883E-05
1.324588,-1.728847E-05,1.324588,3.499948E-05
1.325382,-1.644922E-05,1.325382,3.469514E-05
1.326176,-1.393149E-05,1.326176,3.371733E-05
1.326971,-1.779202E-05,1.326971,3.256338E-05
1.327765,-1.393149E-05,1.327765,3.198446E-05
1.328559,-1.493858E-05,1.328559,3.193854E-05
1.329353,-1.628138E-05,1.329353,3.193477E-05
1.330147,-1.493858E-05,1.330147,3.187681E-05
1.330941,-1.309224E-05,1.330941,3.178447E-05
1.331735,-1.527428E-05,1.331735,3.166152E-05
1.332529,-1.493858E-05,1.332529,3.159626E-05
1.333323,-1.292439E-05,1.333323,3.157928E-05
1.334118,-1.275654E-05,1.334118,3.157488E-05
1.334912,-1.359579E-05,1.334912,3.158103E-05
1.335706,-1.15816E-05,1.335706,3.159003E-05
1.3365,-6.042573E-06,1.3365,3.159668E-05
1.337294,2.349889E-06,1.337294,3.159697E-05
1.338088,9.567407E-06,1.338088,3.159498E-05
1.338882,4.36408E-06,1.338882,3.159732E-05
1.339676,3.692683E-06,1.339676,3.159578E-05
1.340471,3.860533E-06,1.340471,3.159441E-05
1.341265,1.007095E-06,1.341265,3.159311E-05
1.342059,-1.393149E-05,1.342059,3.158961E-05
1.342853,-2.500954E-05,1.342853,3.159599E-05
1.343647,-2.702373E-05,1.343647,3.162409E-05
1.344441,-2.954147E-05,1.344441,3.16589E-05
1.345235,-3.23949E-05,1.345235,3.169784E-05
1.346029,-2.618448E-05,1.346029,3.174124E-05
1.346823,-2.265965E-05,1.346823,3.175628E-05
1.347618,-2.030976E-05,1.347618,3.174072E-05
1.348412,-2.081331E-05,1.348412,3.168982E-05
1.349206,-2.500954E-05,1.349206,3.165718E-05
1.35,-1.846342E-05,1.35,3.166579E-05
1.350794,5.035477E-07,1.350794,3.168019E-05
1.351588,2.265965E-05,1.351588,3.16802E-05
1.352382,3.40734E-05,1.352382,3.170598E-05
1.353176,4.179446E-05,1.353176,3.176412E-05
1.353971,4.179446E-05,1.353971,3.185156E-05
1.354765,2.870222E-05,1.354765,3.193873E-05
1.355559,1.930266E-05,1.355559,3.197693E-05
1.356353,1.09102E-05,1.356353,3.199276E-05
1.357147,1.510643E-06,1.357147,3.199849E-05
1.357941,-6.378271E-06,1.357941,3.199836E-05
1.358735,-8.392462E-06,1.358735,3.199446E-05
1.359529,-1.493858E-05,1.359529,3.19946E-05
1.360324,-2.165255E-05,1.360324,3.200299E-05
1.361118,-2.433814E-05,1.361118,3.202372E-05
1.361912,-3.004501E-05,1.361912,3.204967E-05
1.362706,-3.054856E-05,1.362706,3.208187E-05
1.3635,-3.004501E-05,1.3635,3.211125E-05
1.364294,-2.836652E-05,1.364294,3.214934E-05
1.365088,-2.500954E-05,1.365088,3.218364E-05
1.365882,-2.18204E-05,1.365882,3.220588E-05
1.366676,-2.484169E-05,1.366676,3.221685E-05
1.367471,-2.803082E-05,1.367471,3.223257E-05
1.368265,-2.652018E-05,1.368265,3.226108E-05
1.369059,-2.719158E-05,1.369059,3.228837E-05
1.369853,-2.635233E-05,1.369853,3.231502E-05
1.370647,-2.433814E-05,1.370647,3.23392E-05
1.371441,-1.829557E-05,1.371441,3.235881E-05
1.372235,-1.628138E-05,1.372235,3.237045E-05
1.373029,-2.568093E-05,1.373029,3.238232E-05
1.373824,-3.591974E-05,1.373824,3.241462E-05
1.374618,-5.757229E-05,1.374618,3.247744E-05
1.375412,-8.761731E-05,1.375412,3.263932E-05
1.376206,-0.0001012131,1.376206,3.301161E-05
1.377,-7.502861E-05,1.377,3.350126E-05
1.377794,1.678492E-06,1.377794,3.376508E-05
1.378588,0.0001062486,1.378588,3.376228E-05
1.379382,0.0001754025,1.379382,3.428433E-05
1.380176,0.0001827878,1.380176,3.566919E-05
1.380971,0.0001411612,1.380971,3.710943E-05
1.381765,6.462196E-05,1.381765,3.793265E-05
1.382559,-4.196231E-06,1.382559,3.808279E-05
1.383353,-3.776608E-05,1.383353,3.805298E-05
1.384147,-4.548714E-05,1.384147,3.809179E-05
1.384941,-5.606165E-05,1.384941,3.817536E-05
1.385735,-4.985122E-05,1.385735,3.830511E-05
1.386529,-3.172351E-05,1.386529,3.839588E-05
1.387323,-2.702373E-05,1.387323,3.841936E-05
1.388118,-2.719158E-05,1.388118,3.844658E-05
1.388912,-2.165255E-05,1.388912,3.84755E-05
1.389706,-1.980621E-05,1.389706,3.849233E-05
1.3905,-2.232395E-05,1.3905,3.85077E-05
1.391294,-2.047761E-05,1.391294,3.852828E-05
1.392088,-1.963836E-05,1.392088,3.854558E-05
1.392882,-1.963836E-05,1.392882,3.856039E-05
1.393676,-1.896696E-05,1.393676,3.857253E-05
1.394471,-1.258869E-05,1.394471,3.857432E-05
1.395265,-7.553216E-06,1.395265,3.856601E-05
1.396059,-3.860533E-06,1.396059,3.854652E-05
1.396853,-6.881819E-06,1.396853,3.85188E-05
1.397647,-6.881819E-06,1.397647,3.850792E-05
1.398441,-7.049668E-06,1.398441,3.850661E-05
1.399235,-1.05745E-05,1.399235,3.850768E-05
1.400029,-1.12459E-05,1.400029,3.851034E-05
1.400823,-1.661708E-05,1.400823,3.851138E-05
1.401618,-1.762417E-05,1.401618,3.851642E-05
1.402412,-1.577783E-05,1.402412,3.85169E-05
1.403206,-1.795987E-05,1.403206,3.849233E-05
1.404,-2.030976E-05,1.404,3.846225E-05
1.404794,-2.131685E-05,1.404794,3.845743E-05
1.405588,-1.393149E-05,1.405588,3.847131E-05
1.406382,-1.15816E-05,1.406382,3.847925E-05
1.407176,-1.309224E-05,1.407176,3.848153E-05
1.407971,-1.443504E-05,1.407971,3.847875E-05
1.408765,-2.198825E-05,1.408765,3.847855E-05
1.409559,-2.568093E-05,1.409559,3.849528E-05
1.410353,-2.165255E-05,1.410353,3.85185E-05
1.411147,-1.527428E-05,1.411147,3.853572E-05
1.411941,-1.594568E-05,1.411941,3.854533E-05
1.412735,-1.292439E-05,1.412735,3.855532E-05
1.413529,-1.02388E-05,1.413529,3.855883E-05
1.414324,-1.05745E-05,1.414324,3.854777E-05
1.415118,-4.36408E-06,1.415118,3.853478E-05
1.415912,3.860533E-06,1.415912,3.851528E-05
1.416706,1.326009E-05,1.416706,3.847248E-05
1.4175,2.064546E-05,1.4175,3.840268E-05
1.418294,2.265965E-05,1.418294,3.825226E-05
1.419088,1.963836E-05,1.419088,3.795166E-05
1.419882,1.628138E-05,1.419882,3.747767E-05
1.420676,8.560311E-06,1.420676,3.706573E-05
1.421471,5.203327E-06,1.421471,3.696341E-05
1.422265,2.517739E-06,1.422265,3.691551E-05
1.423059,-2.014191E-06,1.423059,3.632233E-05
1.423853,-6.54612E-06,1.423853,3.516336E-05
1.424647,-1.107805E-05,1.424647,3.405138E-05
1.425441,-9.567407E-06,1.425441,3.364595E-05
1.426235,-9.567407E-06,1.426235,3.360802E-05
1.427029,-1.426719E-05,1.427029,3.360989E-05
1.427824,-1.762417E-05,1.427824,3.358578E-05
1.428618,-1.762417E-05,1.428618,3.350518E-05
1.429412,-1.628138E-05,1.429412,3.342004E-05
1.430206,-1.376364E-05,1.430206,3.340207E-05
1.431,-1.493858E-05,1.431,3.338874E-05
1.431794,-1.963836E-05,1.431794,3.337561E-05
1.432588,-1.628138E-05,1.432588,3.336988E-05
1.433382,-4.867628E-06,1.433382,3.335105E-05
1.434176,9.903105E-06,1.434176,3.33119E-05
1.434971,2.735943E-05,1.434971,3.327146E-05
1.435765,3.172351E-05,1.435765,3.325912E-05
1.436559,2.400244E-05,1.436559,3.326693E-05
1.437353,1.05745E-05,1.437353,3.324427E-05
1.438147,-1.007095E-06,1.438147,3.319176E-05
1.438941,-1.225299E-05,1.438941,3.313328E-05
1.439735,-1.661708E-05,1.439735,3.309709E-05
1.440529,-2.030976E-05,1.440529,3.308188E-05
1.441324,-2.098116E-05,1.441324,3.308562E-05
1.442118,-1.779202E-05,1.442118,3.309769E-05
1.442912,-1.728847E-05,1.442912,3.310966E-05
1.443706,-1.695277E-05,1.443706,3.312354E-05
1.4445,-1.728847E-05,1.4445,3.313713E-05
1.445294,-1.963836E-05,1.445294,3.315147E-05
1.446088,-2.030976E-05,1.446088,3.316999E-05
1.446882,-2.165255E-05,1.446882,3.318907E-05
1.447676,-2.047761E-05,1.447676,3.321147E-05
1.448471,-1.779202E-05,1.448471,3.323141E-05
1.449265,-1.443504E-05,1.449265,3.324635E-05
1.450059,-1.695277E-05,1.450059,3.325548E-05
1.450853,-1.275654E-05,1.450853,3.326885E-05
1.451647,-9.903105E-06,1.451647,3.327542E-05
1.452441,-1.15816E-05,1.452441,3.327726E-05
1.453235,-1.107805E-05,1.453235,3.327462E-05
1.454029,-6.210422E-06,1.454029,3.327075E-05
1.454823,-4.531929E-06,1.454823,3.325884E-05
1.455618,-5.203327E-06,1.455618,3.324006E-05
1.456412,-5.539025E-06,1.456412,3.322648E-05
1.457206,-7.553216E-06,1.457206,3.321418E-05
1.458,-1.141375E-05,1.458,3.320115E-05
1.458794,-1.560998E-05,1.458794,3.319621E-05
1.459588,-2.098116E-05,1.459588,3.318811E-05
1.460382,-2.366674E-05,1.460382,3.317717E-05
1.461176,-2.970932E-05,1.461176,3.318293E-05
1.461971,-3.121996E-05,1.461971,3.321883E-05
1.462765,-2.702373E-05,1.462765,3.326503E-05
1.463559,-2.534523E-05,1.463559,3.329318E-05
1.464353,-2.265965E-05,1.464353,3.331671E-05
1.465147,-2.064546E-05,1.465147,3.332724E-05
1.465941,-1.560998E-05,1.465941,3.33295E-05
1.466735,-1.560998E-05,1.466735,3.332685E-05
1.467529,-1.141375E-05,1.467529,3.332923E-05
1.468323,-8.224612E-06,1.468323,3.332117E-05
1.469118,-8.89601E-06,1.469118,3.33125E-05
1.469912,-1.174945E-06,1.469912,3.331144E-05
1.470706,2.517739E-06,1.470706,3.331073E-05
1.4715,-4.531929E-06,1.4715,3.331064E-05
1.472294,-1.426719E-05,1.472294,3.331103E-05
1.473088,-9.903105E-06,1.473088,3.331803E-05
1.473882,1.510643E-06,1.473882,3.331253E-05
1.474676,5.706874E-06,1.474676,3.328509E-05
1.475471,3.189136E-06,1.475471,3.324246E-05
1.476265,-5.035477E-07,1.476265,3.321134E-05
1.477059,-9.567407E-06,1.477059,3.319864E-05
1.477853,-1.762417E-05,1.477853,3.3198E-05
1.478647,-1.628138E-05,1.478647,3.321004E-05
1.479441,-9.567407E-06,1.479441,3.322236E-05
1.480235,-1.174945E-06,1.480235,3.322655E-05
1.481029,6.881819E-06,1.481029,3.322661E-05
1.481824,1.326009E-05,1.481824,3.322858E-05
1.482618,1.963836E-05,1.482618,3.323553E-05
1.483412,2.165255E-05,1.483412,3.325174E-05
1.484206,1.795987E-05,1.484206,3.32712E-05
1.485,1.510643E-05,1.485,3.328313E-05
1.485794,1.460288E-05,1.485794,3.328647E-05
1.486588,9.903105E-06,1.486588,3.327561E-05
1.487382,4.028382E-06,1.487382,3.325195E-05
1.488176,-2.349889E-06,1.488176,3.322849E-05
1.488971,-8.224612E-06,1.488971,3.320152E-05
1.489765,-1.359579E-05,1.489765,3.31794E-05
1.490559,-1.661708E-05,1.490559,3.315321E-05
1.491353,-1.510643E-05,1.491353,3.312212E-05
1.492147,-1.493858E-05,1.492147,3.309348E-05
1.492941,-1.527428E-05,1.492941,3.307764E-05
1.493735,-1.493858E-05,1.493735,3.308613E-05
1.494529,-1.930266E-05,1.494529,3.308964E-05
1.495324,-1.644922E-05,1.495324,3.3098E-05
1.496118,-1.225299E-05,1.496118,3.310692E-05
1.496912,-1.12459E-05,1.496912,3.311407E-05
1.497706,-1.242084E-05,1.497706,3.310493E-05
1.4985,-1.208515E-05,1.4985,3.30938E-05
1.499294,-1.426719E-05,1.499294,3.308935E-05
1.500088,-1.661708E-05,1.500088,3.308505E-05
1.500882,-1.493858E-05,1.500882,3.307782E-05
1.501676,-1.12459E-05,1.501676,3.306634E-05
1.502471,-8.560311E-06,1.502471,3.305913E-05
1.503265,-1.12459E-05,1.503265,3.305503E-05
1.504059,-1.661708E-05,1.504059,3.304938E-05
1.504853,-1.460288E-05,1.504853,3.305887E-05
1.505647,-1.661708E-05,1.505647,3.306875E-05
1.506441,-2.970932E-05,1.506441,3.30727E-05
1.507235,-4.313725E-05,1.507235,3.30886E-05
1.508029,-6.092927E-05,1.508029,3.315037E-05
1.508824,-8.845655E-05,1.508824,3.330785E-05
1.509618,-0.0001005417,1.509618,3.367215E-05
1.510412,-7.217517E-05,1.510412,3.414355E-05
1.511206,-7.553216E-06,1.511206,3.438439E-05
1.512,8.92958E-05,1.512,3.438698E-05
1.512794,0.0001579461,1.512794,3.474914E-05
1.513588,0.0001700313,1.513588,3.585897E-05
1.514382,0.0001260548,1.514382,3.710016E-05
1.515176,4.901198E-05,1.515176,3.775204E-05
1.515971,-2.517739E-06,1.515971,3.783289E-05
1.516765,-2.752728E-05,1.516765,3.780752E-05
1.517559,-3.390555E-05,1.517559,3.779101E-05
1.518353,-4.985122E-05,1.518353,3.774702E-05
1.519147,-4.448005E-05,1.519147,3.766255E-05
1.519941,-3.20592E-05,1.519941,3.737822E-05
1.520735,-3.30663E-05,1.520735,3.691043E-05
1.521529,-3.054856E-05,1.521529,3.665039E-05
1.522323,-2.937362E-05,1.522323,3.667987E-05
1.523118,-3.138781E-05,1.523118,3.643353E-05
1.523912,-2.601663E-05,1.523912,3.545953E-05
1.524706,-2.198825E-05,1.524706,3.429257E-05
1.5255,-1.863127E-05,1.5255,3.362081E-05
1.526294,-1.527428E-05,1.526294,3.353327E-05
1.527088,-1.225299E-05,1.527088,3.354337E-05
1.527882,-1.258869E-05,1.527882,3.350952E-05
1.528676,-1.359579E-05,1.528676,3.343262E-05
1.529471,-1.577783E-05,1.529471,3.330117E-05
1.530265,-1.913481E-05,1.530265,3.322401E-05
1.531059,-1.829557E-05,1.531059,3.320994E-05
1.531853,-1.779202E-05,1.531853,3.32042E-05
1.532647,-1.258869E-05,1.532647,3.318608E-05
1.533441,-1.393149E-05,1.533441,3.315642E-05
1.534235,-1.661708E-05,1.534235,3.312708E-05
1.535029,-1.762417E-05,1.535029,3.31048E-05
1.535823,-1.695277E-05,1.535823,3.309577E-05
1.536618,-1.628138E-05,1.536618,3.309104E-05
1.537412,-1.493858E-05,1.537412,3.308798E-05
1.538206,-2.198825E-05,1.538206,3.308544E-05
1.539,-3.541619E-05,1.539,3.309936E-05
1.539794,-3.575189E-05,1.539794,3.315818E-05
1.540588,-1.628138E-05,1.540588,3.321712E-05
1.541382,1.829557E-05,1.541382,3.322808E-05
1.542176,4.750134E-05,1.542176,3.324405E-05
1.542971,5.62295E-05,1.542971,3.335188E-05
1.543765,5.287251E-05,1.543765,3.350057E-05
1.544559,4.800488E-05,1.544559,3.362789E-05
1.545353,4.313725E-05,1.545353,3.372935E-05
1.546147,3.474479E-05,1.546147,3.380561E-05
1.546941,2.1149E-05,1.546941,3.384944E-05
1.547735,2.853437E-06,1.547735,3.384738E-05
1.548529,-3.860533E-06,1.548529,3.382215E-05
1.549324,-1.359579E-05,1.549324,3.378359E-05
1.550118,-2.299535E-05,1.550118,3.37337E-05
1.550912,-2.299535E-05,1.550912,3.366164E-05
1.551706,-2.433814E-05,1.551706,3.358724E-05
1.5525,-3.105211E-05,1.5525,3.355124E-05
1.553294,-3.575189E-05,1.553294,3.358543E-05
1.554088,-3.541619E-05,1.554088,3.364327E-05
1.554882,-3.289845E-05,1.554882,3.368111E-05
1.555676,-2.803082E-05,1.555676,3.369288E-05
1.556471,-2.568093E-05,1.556471,3.367989E-05
1.557265,-2.836652E-05,1.557265,3.367612E-05
1.558059,-2.635233E-05,1.558059,3.369199E-05
1.558853,-2.601663E-05,1.558853,3.371846E-05
1.559647,-2.333104E-05,1.559647,3.375012E-05
1.560441,-1.913481E-05,1.560441,3.377482E-05
1.561235,-1.863127E-05,1.561235,3.379201E-05
1.562029,-2.030976E-05,1.562029,3.380798E-05
1.562824,-2.803082E-05,1.562824,3.382644E-05
1.563618,-3.508049E-05,1.563618,3.386178E-05
1.564412,-2.937362E-05,1.564412,3.391833E-05
1.565206,-2.131685E-05,1.565206,3.395422E-05
1.566,-1.779202E-05,1.566,3.396506E-05
1.566794,-1.12459E-05,1.566794,3.396944E-05
1.567588,-3.692683E-06,1.567588,3.396979E-05
1.568382,8.560311E-06,1.568382,3.396339E-05
1.569176,1.661708E-05,1.569176,3.396124E-05
1.569971,1.258869E-05,1.569971,3.397238E-05
1.570765,7.888914E-06,1.570765,3.39798E-05
1.571559,2.349889E-06,1.571559,3.398189E-05
1.572353,-3.356985E-07,1.572353,3.398205E-05
1.573147,-3.860533E-06,1.573147,3.398061E-05
1.573941,-1.258869E-05,1.573941,3.397574E-05
1.574735,-1.527428E-05,1.574735,3.396915E-05
1.575529,-7.553216E-06,1.575529,3.39674E-05
1.576324,-7.217518E-06,1.576324,3.396098E-05
1.577118,-1.09102E-05,1.577118,3.394858E-05
1.577912,-8.056763E-06,1.577912,3.394506E-05
1.578706,-5.539025E-06,1.578706,3.393763E-05
1.5795,3.356985E-07,1.5795,3.392663E-05
1.580294,4.531929E-06,1.580294,3.391616E-05
1.581088,6.54612E-06,1.581088,3.390908E-05
1.581882,6.54612E-06,1.581882,3.390013E-05
1.582676,-1.678492E-06,1.582676,3.389166E-05
1.583471,-1.05745E-05,1.583471,3.388395E-05
1.584265,-9.903105E-06,1.584265,3.388156E-05
1.585059,-9.567407E-06,1.585059,3.387748E-05
1.585853,-9.567407E-06,1.585853,3.387547E-05
1.586647,-7.217518E-06,1.586647,3.387806E-05
1.587441,-1.443504E-05,1.587441,3.388025E-05
1.588235,-2.299535E-05,1.588235,3.388574E-05
1.589029,-2.702373E-05,1.589029,3.390968E-05
1.589823,-2.601663E-05,1.589823,3.394332E-05
1.590618,-2.584878E-05,1.590618,3.397436E-05
1.591412,-1.728847E-05,1.591412,3.400562E-05
1.592206,-1.460288E-05,1.592206,3.401053E-05
1.593,-1.326009E-05,1.593,3.399122E-05
1.593794,-1.258869E-05,1.593794,3.396523E-05
1.594588,-8.89601E-06,1.594588,3.393173E-05
1.595382,-7.721065E-06,1.595382,3.388617E-05
1.596177,-8.392462E-06,1.596177,3.385674E-05
1.596971,-9.567407E-06,1.596971,3.38359E-05
1.597765,-1.107805E-05,1.597765,3.382079E-05
1.598559,-7.888914E-06,1.598559,3.380617E-05
1.599353,-4.867628E-06,1.599353,3.377963E-05
1.600147,-8.560311E-06,1.600147,3.376467E-05
1.600941,-1.12459E-05,1.600941,3.376812E-05
1.601735,-1.326009E-05,1.601735,3.374986E-05
1.602529,-1.930266E-05,1.602529,3.370335E-05
1.603323,-1.795987E-05,1.603323,3.363836E-05
1.604118,-1.225299E-05,1.604118,3.357087E-05
1.604912,-3.189136E-06,1.604912,3.35389E-05
1.605706,3.860533E-06,1.605706,3.352169E-05
1.6065,1.12459E-05,1.6065,3.351675E-05
1.607294,1.661708E-05,1.607294,3.352264E-05
1.608088,1.930266E-05,1.608088,3.353383E-05
1.608882,2.131685E-05,1.608882,3.354817E-05
1.609676,1.896696E-05,1.609676,3.355914E-05
1.610471,1.460288E-05,1.610471,3.355397E-05
1.611265,7.553216E-06,1.611265,3.353597E-05
1.612059,4.196231E-06,1.612059,3.349579E-05
1.612853,6.881819E-06,1.612853,3.345224E-05
1.613647,7.888914E-06,1.613647,3.34115E-05
1.614441,3.356985E-06,1.614441,3.33761E-05
1.615235,1.678492E-07,1.615235,3.334678E-05
1.616029,-3.356985E-06,1.616029,3.332404E-05
1.616824,-7.217518E-06,1.616824,3.329508E-05
1.617618,-1.242084E-05,1.617618,3.325997E-05
1.618412,-2.333104E-05,1.618412,3.323367E-05
1.619206,-2.920577E-05,1.619206,3.322433E-05
1.62,-4.112306E-05,1.62,3.323193E-05
1.620794,-5.857939E-05,1.620794,3.328453E-05
1.621588,-8.140688E-05,1.621588,3.343236E-05
1.622382,-0.0001116197,1.622382,3.373401E-05
1.623176,-0.0001418326,1.623176,3.428646E-05
1.623971,-0.0001326009,1.623971,3.514993E-05
1.624765,-6.999313E-05,1.624765,3.579048E-05
1.625559,2.618448E-05,1.625559,3.566668E-05
1.626353,0.0001210193,1.626353,3.523736E-05
1.627147,0.0001683528,1.627147,3.564248E-05
1.627941,0.0001587854,1.627941,3.688686E-05
1.628735,9.98703E-05,1.628735,3.748312E-05
1.629529,3.23949E-05,1.629529,3.658918E-05
1.630324,-6.881819E-06,1.630324,3.515259E-05
1.631118,-2.316319E-05,1.631118,3.424026E-05
1.631912,-3.27306E-05,1.631912,3.407058E-05
1.632706,-4.582284E-05,1.632706,3.411979E-05
1.6335,-3.776608E-05,1.6335,3.415121E-05
1.634294,-2.299535E-05,1.634294,3.412122E-05
1.635088,-1.040665E-05,1.635088,3.399901E-05
1.635882,6.881819E-06,1.635882,3.38875E-05
1.636676,1.762417E-05,1.636676,3.384241E-05
1.637471,7.721065E-06,1.637471,3.382266E-05
1.638265,-5.539025E-06,1.638265,3.379064E-05
1.639059,-1.359579E-05,1.639059,3.376999E-05
1.639853,-1.762417E-05,1.639853,3.37602E-05
1.640647,-2.467384E-05,1.640647,3.375134E-05
1.641441,-2.668803E-05,1.641441,3.376028E-05
1.642235,-2.719158E-05,1.642235,3.377568E-05
1.643029,-2.618448E-05,1.643029,3.379236E-05
1.643824,-2.534523E-05,1.643824,3.380771E-05
1.644618,-2.299535E-05,1.644618,3.383049E-05
1.645412,-2.584878E-05,1.645412,3.385269E-05
1.646206,-2.635233E-05,1.646206,3.38834E-05
1.647,-2.316319E-05,1.647,3.39138E-05
1.647794,-1.930266E-05,1.647794,3.393676E-05
1.648588,-1.577783E-05,1.648588,3.395191E-05
1.649382,-1.544213E-05,1.649382,3.395833E-05
1.650176,-8.89601E-06,1.650176,3.396358E-05
1.650971,-2.853437E-06,1.650971,3.395435E-05
1.651765,-1.678492E-06,1.651765,3.394016E-05
1.652559,-6.881819E-06,1.652559,3.392861E-05
1.653353,-1.359579E-05,1.653353,3.391569E-05
1.654147,-1.560998E-05,1.654147,3.3905E-05
1.654941,-1.292439E-05,1.654941,3.38951E-05
1.655735,-7.553216E-06,1.655735,3.389383E-05
1.656529,-7.553216E-06,1.656529,3.389021E-05
1.657323,-8.224612E-06,1.657323,3.388484E-05
1.658118,-8.224612E-06,1.658118,3.387822E-05
1.658912,-9.063859E-06,1.658912,3.385867E-05
1.659706,-8.89601E-06,1.659706,3.383151E-05
1.6605,-9.567407E-06,1.6605,3.381316E-05
1.661294,-1.007095E-05,1.661294,3.380649E-05
1.662088,-1.05745E-05,1.662088,3.379929E-05
1.662882,-7.553216E-06,1.662882,3.379668E-05
1.663677,1.007095E-06,1.663677,3.379443E-05
1.664471,4.36408E-06,1.664471,3.378921E-05
1.665265,5.539025E-06,1.665265,3.378921E-05
1.666059,4.531929E-06,1.666059,3.378995E-05
1.666853,4.196231E-06,1.666853,3.378264E-05
1.667647,3.860533E-06,1.667647,3.376337E-05
1.668441,5.203327E-06,1.668441,3.373985E-05
1.669235,3.356985E-07,1.669235,3.372292E-05
1.670029,-4.196231E-06,1.670029,3.371041E-05
1.670823,-4.196231E-06,1.670823,3.370778E-05
1.671618,-4.867628E-06,1.671618,3.370733E-05
1.672412,-7.553216E-06,1.672412,3.370815E-05
1.673206,-8.224612E-06,1.673206,3.371065E-05
1.674,-8.89601E-06,1.674,3.371183E-05
1.674794,-1.09102E-05,1.674794,3.370977E-05
1.675588,-1.661708E-05,1.675588,3.371107E-05
1.676382,-1.560998E-05,1.676382,3.371978E-05
1.677176,-1.409934E-05,1.677176,3.372168E-05
1.677971,-1.426719E-05,1.677971,3.37164E-05
1.678765,-1.15816E-05,1.678765,3.371134E-05
1.679559,-8.560311E-06,1.679559,3.370515E-05
1.680353,-1.19173E-05,1.680353,3.369967E-05
1.681147,-9.567407E-06,1.681147,3.369583E-05
1.681941,-7.553216E-06,1.681941,3.368193E-05
1.682735,-5.539025E-06,1.682735,3.367209E-05
1.683529,-3.860533E-06,1.683529,3.367242E-05
1.684324,-5.035477E-07,1.684324,3.366849E-05
1.685118,3.189136E-06,1.685118,3.363308E-05
1.685912,2.517739E-06,1.685912,3.358588E-05
1.686706,8.392462E-07,1.686706,3.355886E-05
1.6875,-1.174945E-06,1.6875,3.355359E-05
1.688294,-4.867628E-06,1.688294,3.35536E-05
1.689088,-7.217518E-06,1.689088,3.35476E-05
1.689882,-1.09102E-05,1.689882,3.353697E-05
1.690676,-1.242084E-05,1.690676,3.352303E-05
1.691471,-1.292439E-05,1.691471,3.350944E-05
1.692265,-1.829557E-05,1.692265,3.350234E-05
1.693059,-1.963836E-05,1.693059,3.350404E-05
1.693853,-1.779202E-05,1.693853,3.350871E-05
1.694647,-1.762417E-05,1.694647,3.350955E-05
1.695441,-1.493858E-05,1.695441,3.350598E-05
1.696235,-1.913481E-05,1.696235,3.349699E-05
1.697029,-1.661708E-05,1.697029,3.349211E-05
1.697824,-1.19173E-05,1.697824,3.34853E-05
1.698618,-1.09102E-05,1.698618,3.347699E-05
1.699412,-1.258869E-05,1.699412,3.347274E-05
1.700206,-1.309224E-05,1.700206,3.346661E-05
1.701,-1.326009E-05,1.701,3.346703E-05
1.701794,-1.09102E-05,1.701794,3.347073E-05
1.702588,-1.342794E-05,1.702588,3.347001E-05
1.703382,-1.896696E-05,1.703382,3.347274E-05
1.704176,-2.232395E-05,1.704176,3.348802E-05
1.704971,-2.265965E-05,1.704971,3.351073E-05
1.705765,-1.493858E-05,1.705765,3.353384E-05
1.706559,-2.517739E-06,1.706559,3.354298E-05
1.707353,4.699779E-06,1.707353,3.354057E-05
1.708147,1.040665E-05,1.708147,3.353543E-05
1.708941,1.292439E-05,1.708941,3.3529E-05
1.709735,9.903105E-06,1.709735,3.351603E-05
1.710529,1.174945E-05,1.710529,3.349407E-05
1.711323,8.560311E-06,1.711323,3.345865E-05
1.712118,5.035477E-07,1.712118,3.341572E-05
1.712912,-3.692683E-06,1.712912,3.338092E-05
1.713706,-1.05745E-05,1.713706,3.335091E-05
1.7145,-1.779202E-05,1.7145,3.333173E-05
1.715294,-1.896696E-05,1.715294,3.332649E-05
1.716088,-2.299535E-05,1.716088,3.333203E-05
1.716882,-2.450599E-05,1.716882,3.334566E-05
1.717676,-2.735943E-05,1.717676,3.336811E-05
1.718471,-2.366674E-05,1.718471,3.340058E-05
1.719265,-1.460288E-05,1.719265,3.34235E-05
1.720059,-7.888914E-06,1.720059,3.34336E-05
1.720853,-1.678492E-07,1.720853,3.343626E-05
1.721647,-2.014191E-06,1.721647,3.343528E-05
1.722441,-3.524834E-06,1.722441,3.342578E-05
1.723235,-3.189136E-06,1.723235,3.34217E-05
1.724029,-1.678492E-07,1.724029,3.342207E-05
1.724823,5.035477E-07,1.724823,3.342053E-05
1.725618,2.18204E-06,1.725618,3.342005E-05
1.726412,-8.392462E-07,1.726412,3.342027E-05
1.727206,-4.531929E-06,1.727206,3.341594E-05
1.728,-8.89601E-06,1.728,3.340211E-05
1.728794,-1.493858E-05,1.728794,3.339325E-05
1.729588,-1.997406E-05,1.729588,3.339952E-05
1.730382,-2.534523E-05,1.730382,3.341847E-05
1.731176,-2.601663E-05,1.731176,3.344681E-05
1.731971,-2.28275E-05,1.731971,3.347066E-05
1.732765,-1.947051E-05,1.732765,3.34771E-05
1.733559,-1.795987E-05,1.733559,3.347283E-05
1.734353,-1.560998E-05,1.734353,3.347283E-05
1.735147,-1.242084E-05,1.735147,3.347357E-05
1.735941,-1.040665E-05,1.735941,3.347076E-05
1.736735,-1.460288E-05,1.736735,3.347125E-05
1.737529,-2.064546E-05,1.737529,3.348062E-05
1.738323,-1.728847E-05,1.738323,3.350063E-05
1.739118,-1.12459E-05,1.739118,3.351162E-05
1.739912,-1.09102E-05,1.739912,3.350884E-05
1.740706,-1.05745E-05,1.740706,3.350138E-05
1.7415,-5.203327E-06,1.7415,3.349584E-05
1.742294,-8.224612E-06,1.742294,3.348652E-05
1.743088,-1.12459E-05,1.743088,3.347864E-05
1.743882,-1.05745E-05,1.743882,3.347404E-05
1.744676,-1.174945E-05,1.744676,3.346163E-05
1.745471,-1.19173E-05,1.745471,3.345533E-05
1.746265,-1.292439E-05,1.746265,3.345494E-05
1.747059,-1.661708E-05,1.747059,3.345687E-05
1.747853,-2.165255E-05,1.747853,3.346267E-05
1.748647,-1.460288E-05,1.748647,3.347803E-05
1.749441,-3.356985E-07,1.749441,3.347849E-05
1.750235,1.577783E-05,1.750235,3.346536E-05
1.751029,2.618448E-05,1.751029,3.346658E-05
1.751824,2.735943E-05,1.751824,3.349318E-05
1.752618,1.779202E-05,1.752618,3.352527E-05
1.753412,4.36408E-06,1.753412,3.35343E-05
1.754206,-3.860533E-06,1.754206,3.352209E-05
1.755,-4.867628E-06,1.755,3.351266E-05
1.755794,-3.524834E-06,1.755794,3.350067E-05
1.756588,-1.174945E-06,1.756588,3.345928E-05
1.757382,6.713969E-07,1.757382,3.337067E-05
1.758176,-5.035477E-07,1.758176,3.319307E-05
1.758971,-1.846342E-06,1.758971,3.281557E-05
1.759765,-2.517739E-06,1.759765,3.232151E-05
1.760559,-5.371176E-06,1.760559,3.206415E-05
1.761353,-1.09102E-05,1.761353,3.206275E-05
1.762147,-1.12459E-05,1.762147,3.167026E-05
1.762941,-1.258869E-05,1.762941,3.039669E-05
1.763735,-1.292439E-05,1.763735,2.88512E-05
1.764529,-1.426719E-05,1.764529,2.796997E-05
1.765324,-1.560998E-05,1.765324,2.784451E-05
1.766118,-1.527428E-05,1.766118,2.785808E-05
1.766912,-9.063859E-06,1.766912,2.782809E-05
1.767706,-1.292439E-05,1.767706,2.776694E-05
1.7685,-1.577783E-05,1.7685,2.763369E-05
1.769294,-1.493858E-05,1.769294,2.753384E-05
1.770088,-4.531929E-06,1.770088,2.748727E-05
1.770882,1.107805E-05,1.770882,2.742505E-05
1.771676,2.198825E-05,1.771676,2.737795E-05
1.772471,2.366674E-05,1.772471,2.735588E-05
1.773265,2.400244E-05,1.773265,2.733112E-05
1.774059,1.812772E-05,1.774059,2.732525E-05
1.774853,1.678492E-07,1.774853,2.731623E-05
1.775647,-1.02388E-05,1.775647,2.729599E-05
1.776441,-1.913481E-05,1.776441,2.728849E-05
1.777235,-2.652018E-05,1.777235,2.730109E-05
1.778029,-3.138781E-05,1.778029,2.733285E-05
1.778823,-3.27306E-05,1.778823,2.737944E-05
1.779618,-3.27306E-05,1.779618,2.742722E-05
1.780412,-3.138781E-05,1.780412,2.746813E-05
1.781206,-2.433814E-05,1.781206,2.750582E-05
1.782,-2.064546E-05,1.782,2.752178E-05
1.782794,-1.728847E-05,1.782794,2.753727E-05
1.783588,-7.888914E-06,1.783588,2.754333E-05
1.784382,-6.713969E-06,1.784382,2.753096E-05
1.785176,-7.217518E-06,1.785176,2.751559E-05
1.785971,-4.867628E-06,1.785971,2.750198E-05
1.786765,-4.028382E-06,1.786765,2.748799E-05
1.787559,-9.903105E-06,1.787559,2.747601E-05
1.788353,-5.539025E-06,1.788353,2.745366E-05
1.789147,-5.203327E-06,1.789147,2.73826E-05
1.789941,-9.063859E-06,1.789941,2.730974E-05
1.790735,-6.881819E-06,1.790735,2.729907E-05
1.791529,-9.231709E-06,1.791529,2.728231E-05
1.792323,-1.577783E-05,1.792323,2.715529E-05
1.793118,-1.762417E-05,1.793118,2.698395E-05
1.793912,-2.232395E-05,1.793912,2.683691E-05
1.794706,-2.165255E-05,1.794706,2.672953E-05
1.7955,-2.635233E-05,1.7955,2.664647E-05
1.796294,-2.735943E-05,1.796294,2.661581E-05
1.797088,-2.870222E-05,1.797088,2.663383E-05
1.797882,-4.313725E-05,1.797882,2.668255E-05
1.798676,-5.48867E-05,1.798676,2.679249E-05
1.799471,-6.411841E-05,1.799471,2.696002E-05
1.800265,-7.032883E-05,1.800265,2.717079E-05
1.801059,-8.426032E-05,1.801059,2.742845E-05
1.801853,-7.066453E-05,1.801853,2.780367E-05
1.802647,-2.081331E-05,1.802647,2.803348E-05
1.803441,5.874724E-05,1.803441,2.798544E-05
1.804235,0.0001327687,1.804235,2.811017E-05
1.805029,0.0001643244,1.805029,2.903228E-05
1.805823,0.0001477073,1.805823,3.043627E-05
1.806618,8.610666E-05,1.806618,3.152377E-05
1.807412,2.484169E-05,1.807412,3.18559E-05
1.808206,-1.15816E-05,1.808206,3.185203E-05
1.809,-3.541619E-05,1.809,3.182489E-05
1.809794,-5.337606E-05,1.809794,3.186039E-05
1.810588,-5.639734E-05,1.810588,3.198424E-05
1.811382,-3.659113E-05,1.811382,3.2125E-05
1.812176,-1.728847E-05,1.812176,3.217089E-05
1.812971,-1.242084E-05,1.812971,3.214679E-05
1.813765,-1.02388E-05,1.813765,3.209342E-05
1.814559,-7.217518E-06,1.814559,3.20558E-05
1.815353,-8.560311E-06,1.815353,3.20358E-05
1.816147,-9.903105E-06,1.816147,3.202371E-05
1.816941,-1.258869E-05,1.816941,3.20223E-05
1.817735,-1.359579E-05,1.817735,3.20295E-05
1.818529,-1.19173E-05,1.818529,3.203504E-05
1.819324,-1.376364E-05,1.819324,3.202838E-05
1.820118,-9.567407E-06,1.820118,3.202992E-05
1.820912,-8.224612E-06,1.820912,3.203137E-05
1.821706,-1.225299E-05,1.821706,3.203446E-05
1.8225,-1.762417E-05,1.8225,3.204192E-05
1.823294,-2.618448E-05,1.823294,3.205661E-05
1.824088,-2.534523E-05,1.824088,3.208278E-05
1.824882,-2.534523E-05,1.824882,3.210308E-05
1.825676,-2.702373E-05,1.825676,3.21321E-05
1.826471,-2.668803E-05,1.826471,3.216569E-05
1.827265,-2.198825E-05,1.827265,3.219505E-05
1.828059,-1.577783E-05,1.828059,3.221574E-05
1.828853,-1.577783E-05,1.828853,3.222653E-05
1.829647,-1.762417E-05,1.829647,3.223882E-05
1.830441,-1.678492E-05,1.830441,3.225315E-05
1.831235,-1.15816E-05,1.831235,3.226494E-05
1.832029,-9.063859E-06,1.832029,3.226944E-05
1.832824,-3.189136E-06,1.832824,3.227336E-05
1.833618,1.678492E-07,1.833618,3.226834E-05
1.834412,8.392462E-07,1.834412,3.22635E-05
1.835206,3.860533E-06,1.835206,3.225902E-05
1.836,1.678492E-07,1.836,3.225523E-05
1.836794,-2.18204E-06,1.836794,3.225266E-05
1.837588,0,1.837588,3.224261E-05
1.838382,1.846342E-06,1.838382,3.221649E-05
1.839176,2.18204E-06,1.839176,3.218054E-05
1.839971,1.174945E-06,1.839971,3.214726E-05
1.840765,-1.510643E-06,1.840765,3.211422E-05
1.841559,-2.014191E-06,1.841559,3.209951E-05
1.842353,-5.035477E-06,1.842353,3.208913E-05
1.843147,-8.560311E-06,1.843147,3.208166E-05
1.843941,-1.02388E-05,1.843941,3.207743E-05
1.844735,-1.258869E-05,1.844735,3.207871E-05
1.845529,-1.963836E-05,1.845529,3.208362E-05
1.846323,-2.970932E-05,1.846323,3.209925E-05
1.847118,-2.668803E-05,1.847118,3.213848E-05
1.847912,-1.460288E-05,1.847912,3.216767E-05
1.848706,5.203327E-06,1.848706,3.217515E-05
1.8495,2.601663E-05,1.8495,3.217531E-05
1.850294,2.937362E-05,1.850294,3.220517E-05
1.851088,1.963836E-05,1.851088,3.224156E-05
1.851882,4.867628E-06,1.851882,3.225192E-05
1.852676,-7.888914E-06,1.852676,3.223469E-05
1.853471,-1.12459E-05,1.853471,3.222183E-05
1.854265,-1.258869E-05,1.854265,3.222066E-05
1.855059,-1.493858E-05,1.855059,3.222799E-05
1.855853,-1.560998E-05,1.855853,3.223828E-05
1.856647,-1.15816E-05,1.856647,3.224406E-05
1.857441,-1.309224E-05,1.857441,3.223705E-05
1.858235,-1.863127E-05,1.858235,3.222711E-05
1.859029,-1.762417E-05,1.859029,3.222181E-05
1.859823,-1.376364E-05,1.859823,3.221938E-05
1.860618,-1.258869E-05,1.860618,3.22182E-05
1.861412,-1.225299E-05,1.861412,3.222322E-05
1.862206,-1.225299E-05,1.862206,3.222976E-05
1.863,-1.12459E-05,1.863,3.223484E-05
1.863794,-9.903105E-06,1.863794,3.223801E-05
1.864588,-1.09102E-05,1.864588,3.22423E-05
1.865382,-1.19173E-05,1.865382,3.224818E-05
1.866176,-1.225299E-05,1.866176,3.225463E-05
1.866971,-1.527428E-05,1.866971,3.225947E-05
1.867765,-1.560998E-05,1.867765,3.226338E-05
1.868559,-1.409934E-05,1.868559,3.224853E-05
1.869353,-1.225299E-05,1.869353,3.221621E-05
1.870147,-1.560998E-05,1.870147,3.213996E-05
1.870941,-2.333104E-05,1.870941,3.198162E-05
1.871735,-1.846342E-05,1.871735,3.167732E-05
1.872529,-1.292439E-05,1.872529,3.106219E-05
1.873324,-1.493858E-05,1.873324,3.00221E-05
1.874118,-1.326009E-05,1.874118,2.908678E-05
1.874912,-1.359579E-05,1.874912,2.882704E-05
1.875706,-1.292439E-05,1.875706,2.879937E-05
1.8765,-6.042573E-06,1.8765,2.798738E-05
1.877294,-5.539025E-06,1.877294,2.632767E-05
1.878088,-7.888914E-06,1.878088,2.47578E-05
1.878882,-6.54612E-06,1.878882,2.411187E-05
1.879676,-2.853437E-06,1.879676,2.40453E-05
1.880471,0,1.880471,2.40427E-05
1.881265,-1.174945E-06,1.881265,2.400714E-05
1.882059,-8.056763E-06,1.882059,2.393607E-05
1.882853,-1.527428E-05,1.882853,2.380032E-05
1.883647,-1.19173E-05,1.883647,2.372037E-05
1.884441,8.392462E-07,1.884441,2.369439E-05
1.885235,8.89601E-06,1.885235,2.368716E-05
1.886029,1.12459E-05,1.886029,2.368929E-05
1.886824,5.203327E-06,1.886824,2.367691E-05
1.887618,1.174945E-06,1.887618,2.367473E-05
1.888412,-2.853437E-06,1.888412,2.367275E-05
1.889206,-6.210422E-06,1.889206,2.366086E-05
1.89,-4.531929E-06,1.89,2.364255E-05
1.890794,-4.867628E-06,1.890794,2.36029E-05
1.891588,-3.524834E-06,1.891588,2.35564E-05
1.892382,-1.510643E-06,1.892382,2.350721E-05
1.893176,-6.881819E-06,1.893176,2.346087E-05
1.893971,-1.225299E-05,1.893971,2.342045E-05
1.894765,-1.359579E-05,1.894765,2.339469E-05
1.895559,-1.493858E-05,1.895559,2.336177E-05
1.896353,-1.913481E-05,1.896353,2.332963E-05
1.897147,-2.098116E-05,1.897147,2.331799E-05
1.897941,-2.568093E-05,1.897941,2.332261E-05
1.898735,-2.836652E-05,1.898735,2.335063E-05
1.899529,-2.937362E-05,1.899529,2.33892E-05
1.900324,-3.038071E-05,1.900324,2.34425E-05
1.901118,-2.970932E-05,1.901118,2.350456E-05
1.901912,-1.947051E-05,1.901912,2.356409E-05
1.902706,-9.735256E-06,1.902706,2.358649E-05
1.9035,-1.678492E-07,1.9035,2.358042E-05
1.904294,4.196231E-06,1.904294,2.356396E-05
1.905088,4.867628E-06,1.905088,2.355386E-05
1.905882,9.063859E-06,1.905882,2.35516E-05
1.906676,7.049668E-06,1.906676,2.35533E-05
1.907471,3.189136E-06,1.907471,2.355209E-05
1.908265,-5.035477E-07,1.908265,2.35482E-05
1.909059,3.189136E-06,1.909059,2.354266E-05
1.909853,4.531929E-06,1.909853,2.3538E-05
1.910647,-8.392462E-07,1.910647,2.35332E-05
1.911441,-5.706874E-06,1.911441,2.352638E-05
1.912235,-2.853437E-06,1.912235,2.352101E-05
1.913029,-5.035477E-06,1.913029,2.35177E-05
1.913823,-9.567407E-06,1.913823,2.351935E-05
1.914618,-7.385367E-06,1.914618,2.352426E-05
1.915412,-8.560311E-06,1.915412,2.352587E-05
1.916206,-1.225299E-05,1.916206,2.352944E-05
1.917,-1.12459E-05,1.917,2.353841E-05
1.917794,-1.393149E-05,1.917794,2.354596E-05
1.918588,-1.594568E-05,1.918588,2.355725E-05
1.919382,-6.042573E-06,1.919382,2.357442E-05
1.920176,5.874723E-06,1.920176,2.35757E-05
1.920971,8.728161E-06,1.920971,2.357684E-05
1.921765,5.706874E-06,1.921765,2.358038E-05
1.922559,-1.678492E-06,1.922559,2.357873E-05
1.923353,-4.196231E-06,1.923353,2.357435E-05
1.924147,-1.107805E-05,1.924147,2.357019E-05
1.924941,-2.064546E-05,1.924941,2.357044E-05
1.925735,-3.20592E-05,1.925735,2.358058E-05
1.926529,-5.119402E-05,1.926529,2.363347E-05
1.927323,-7.502861E-05,1.927323,2.37961E-05
1.928118,-0.0001049058,1.928118,2.415645E-05
1.928912,-0.0001151446,1.928912,2.486273E-05
1.929706,-7.502861E-05,1.929706,2.56933E-05
1.9305,4.531929E-06,1.9305,2.603116E-05
1.931294,9.567407E-05,1.931294,2.602681E-05
1.932088,0.0001540856,1.932088,2.657752E-05
1.932882,0.0001649958,1.932882,2.796211E-05
1.933676,0.0001273976,1.933676,2.947086E-05
1.934471,5.253681E-05,1.934471,3.033511E-05
1.935265,-4.867628E-06,1.935265,3.047912E-05
1.936059,-3.20592E-05,1.936059,3.048003E-05
1.936853,-4.347295E-05,1.936853,3.053364E-05
1.937647,-5.471885E-05,1.937647,3.063197E-05
1.938441,-5.320821E-05,1.938441,3.0786E-05
1.939235,-3.877317E-05,1.939235,3.09294E-05
1.940029,-3.222705E-05,1.940029,3.100059E-05
1.940824,-2.702373E-05,1.940824,3.104598E-05
1.941618,-2.098116E-05,1.941618,3.107486E-05
1.942412,-2.568093E-05,1.942412,3.108026E-05
1.943206,-3.004501E-05,1.943206,3.109429E-05
1.944,-3.440909E-05,1.944,3.112429E-05
1.944794,-3.30663E-05,1.944794,3.116894E-05
1.945588,-2.803082E-05,1.945588,3.121337E-05
1.946382,-2.534523E-05,1.946382,3.123476E-05
1.947176,-2.165255E-05,1.947176,3.125343E-05
1.947971,-1.560998E-05,1.947971,3.127008E-05
1.948765,-1.225299E-05,1.948765,3.127642E-05
1.949559,-1.15816E-05,1.949559,3.1276E-05
1.950353,-8.89601E-06,1.950353,3.12741E-05
1.951147,-4.196231E-06,1.951147,3.126918E-05
1.951941,-3.860533E-06,1.951941,3.126401E-05
1.952735,-2.517739E-06,1.952735,3.125559E-05
1.953529,-3.356985E-07,1.953529,3.123757E-05
1.954324,-1.007095E-05,1.954324,3.121217E-05
1.955118,-1.493858E-05,1.955118,3.119114E-05
1.955912,-1.02388E-05,1.955912,3.119114E-05
1.956706,4.36408E-06,1.956706,3.119617E-05
1.9575,1.728847E-05,1.9575,3.119601E-05
1.958294,2.333104E-05,1.958294,3.120574E-05
1.959088,1.460288E-05,1.959088,3.122499E-05
1.959882,5.035477E-07,1.959882,3.123086E-05
1.960676,-1.678492E-05,1.960676,3.122383E-05
1.961471,-2.601663E-05,1.961471,3.123446E-05
1.962265,-2.500954E-05,1.962265,3.126894E-05
1.963059,-2.047761E-05,1.963059,3.130008E-05
1.963853,-1.560998E-05,1.963853,3.131572E-05
1.964647,-7.049668E-06,1.964647,3.131201E-05
1.965441,-5.203327E-06,1.965441,3.129624E-05
1.966235,-6.54612E-06,1.966235,3.127071E-05
1.967029,-1.007095E-06,1.967029,3.124229E-05
1.967824,8.392462E-07,1.967824,3.120417E-05
1.968618,-6.54612E-06,1.968618,3.117561E-05
1.969412,-7.217518E-06,1.969412,3.116691E-05
1.970206,-7.553216E-06,1.970206,3.116639E-05
1.971,-1.326009E-05,1.971,3.11693E-05
1.971794,-1.12459E-05,1.971794,3.117808E-05
1.972588,-8.392462E-07,1.972588,3.11839E-05
1.973382,6.042573E-06,1.973382,3.118342E-05
1.974176,8.392462E-06,1.974176,3.118528E-05
1.974971,7.553216E-06,1.974971,3.118886E-05
1.975765,5.706874E-06,1.975765,3.119153E-05
1.976559,3.692683E-06,1.976559,3.119316E-05
1.977353,6.042573E-06,1.977353,3.119281E-05
1.978147,5.203327E-06,1.978147,3.119063E-05
1.978941,2.853437E-06,1.978941,3.118062E-05
1.979735,-6.713969E-07,1.979735,3.116065E-05
1.980529,-4.196231E-06,1.980529,3.112783E-05
1.981323,-1.728847E-05,1.981323,3.109409E-05
1.982118,-2.584878E-05,1.982118,3.108271E-05
1.982912,-3.138781E-05,1.982912,3.109751E-05
1.983706,-2.719158E-05,1.983706,3.113142E-05
1.9845,-2.299535E-05,1.9845,3.115677E-05
1.985294,-2.1149E-05,1.985294,3.11759E-05
1.986088,-1.997406E-05,1.986088,3.119321E-05
1.986882,-1.728847E-05,1.986882,3.120269E-05
1.987677,-1.309224E-05,1.987677,3.119619E-05
1.988471,-9.231709E-06,1.988471,3.118968E-05
1.989265,-8.056763E-06,1.989265,3.118758E-05
1.990059,-7.049668E-06,1.990059,3.118481E-05
1.990853,-2.18204E-06,1.990853,3.118164E-05
1.991647,1.007095E-06,1.991647,3.11805E-05
1.992441,5.203327E-06,1.992441,3.11771E-05
1.993235,1.443504E-05,1.993235,3.117202E-05
1.994029,1.728847E-05,1.994029,3.117695E-05
1.994823,9.735256E-06,1.994823,3.118517E-05
1.995618,5.203327E-06,1.995618,3.118275E-05
1.996412,-3.356985E-06,1.996412,3.117561E-05
1.997206,-8.392462E-06,1.997206,3.116208E-05
1.998,-1.02388E-05,1.998,3.114171E-05
1.998794,-1.19173E-05,1.998794,3.113617E-05
1.999588,-1.326009E-05,1.999588,3.114342E-05
2.000382,-1.695277E-05,2.000382,3.113969E-05
2.001176,-1.997406E-05,2.001176,3.111932E-05
2.001971,-2.131685E-05,2.001971,3.110143E-05
2.002765,-2.165255E-05,2.002765,3.110848E-05
2.003559,-2.198825E-05,2.003559,3.113149E-05
2.004353,-2.232395E-05,2.004353,3.115545E-05
2.005147,-1.762417E-05,2.005147,3.11797E-05
2.005941,-1.795987E-05,2.005941,3.119493E-05
2.006735,-2.433814E-05,2.006735,3.121132E-05
2.007529,-2.668803E-05,2.007529,3.12415E-05
2.008323,-2.786297E-05,2.008323,3.127777E-05
2.009118,-2.685588E-05,2.009118,3.13171E-05
2.009912,-2.299535E-05,2.009912,3.135343E-05
2.010706,-2.014191E-05,2.010706,3.137881E-05
2.0115,-2.030976E-05,2.0115,3.139335E-05
2.012294,-1.980621E-05,2.012294,3.140785E-05
2.013088,-1.896696E-05,2.013088,3.141971E-05
2.013882,-1.292439E-05,2.013882,3.142947E-05
2.014676,-1.678492E-07,2.014676,3.142762E-05
2.015471,8.728161E-06,2.015471,3.141527E-05
2.016265,1.460288E-05,2.016265,3.140731E-05
2.017059,1.863127E-05,2.017059,3.141395E-05
2.017853,1.762417E-05,2.017853,3.142308E-05
2.018647,1.510643E-05,2.018647,3.14262E-05
2.019441,1.174945E-05,2.019441,3.142646E-05
2.020235,8.560311E-06,2.020235,3.143241E-05
2.021029,7.888914E-06,2.021029,3.142991E-05
2.021823,2.18204E-06,2.021823,3.140856E-05
2.022618,-3.524834E-06,2.022618,3.138039E-05
2.023412,-4.196231E-06,2.023412,3.135177E-05
2.024206,-9.903105E-06,2.024206,3.133597E-05
2.025,-1.460288E-05,2.025,3.134095E-05
2.025794,-1.896696E-05,2.025794,3.134646E-05
2.026588,-1.913481E-05,2.026588,3.134614E-05
2.027382,-1.695277E-05,2.027382,3.1329E-05
2.028177,-1.09102E-05,2.028177,3.129352E-05
2.02897,-8.224612E-06,2.02897,3.124502E-05
2.029765,-9.735256E-06,2.029765,3.119383E-05
2.030559,-1.09102E-05,2.030559,3.114835E-05
2.031353,-9.903105E-06,2.031353,3.112414E-05
2.032147,-8.89601E-06,2.032147,3.110735E-05
2.032941,-8.89601E-06,2.032941,3.10961E-05
2.033735,-6.881819E-06,2.033735,3.109696E-05
2.034529,-6.881819E-06,2.034529,3.109708E-05
2.035323,-7.217518E-06,2.035323,3.109684E-05
2.036118,-9.903105E-06,2.036118,3.109829E-05
2.036912,-1.225299E-05,2.036912,3.110248E-05
2.037706,-1.409934E-05,2.037706,3.110514E-05
2.0385,-1.913481E-05,2.0385,3.111375E-05
2.039294,-2.668803E-05,2.039294,3.11311E-05
2.040088,-2.652018E-05,2.040088,3.116331E-05
2.040882,-2.668803E-05,2.040882,3.119681E-05
2.041677,-2.803082E-05,2.041677,3.12288E-05
2.04247,-2.702373E-05,2.04247,3.125616E-05
2.043265,-2.131685E-05,2.043265,3.127753E-05
2.044059,-1.359579E-05,2.044059,3.12753E-05
2.044853,-5.539025E-06,2.044853,3.126084E-05
2.045647,-2.349889E-06,2.045647,3.122701E-05
2.046441,-1.678492E-06,2.046441,3.118909E-05
2.047235,-1.678492E-06,2.047235,3.114715E-05
2.048029,-1.846342E-06,2.048029,3.105202E-05
2.048824,-5.706874E-06,2.048824,3.089732E-05
2.049618,-8.89601E-06,2.049618,3.06864E-05
2.050412,-1.376364E-05,2.050412,3.04328E-05
2.051206,-2.568093E-05,2.051206,3.006905E-05
2.052,-3.3402E-05,2.052,2.983865E-05
2.052794,-2.702373E-05,2.052794,2.987505E-05
2.053588,-1.829557E-05,2.053588,2.972967E-05
2.054382,-1.359579E-05,2.054382,2.878855E-05
2.055176,-1.628138E-05,2.055176,2.726489E-05
2.055971,-1.510643E-05,2.055971,2.597568E-05
2.056765,-2.030976E-05,2.056765,2.553136E-05
2.057559,-2.131685E-05,2.057559,2.551859E-05
2.058353,-1.728847E-05,2.058353,2.553857E-05
2.059147,-1.695277E-05,2.059147,2.547893E-05
2.059941,-8.224612E-06,2.059941,2.531833E-05
2.060735,8.89601E-06,2.060735,2.512178E-05
2.061529,3.3402E-05,2.061529,2.50418E-05
2.062324,5.018692E-05,2.062324,2.509368E-05
2.063118,5.421531E-05,2.063118,2.524328E-05
2.063912,4.682994E-05,2.063912,2.542145E-05
2.064706,2.819867E-05,2.064706,2.55552E-05
2.0655,1.05745E-05,2.0655,2.560015E-05
2.066294,-5.035477E-07,2.066294,2.5601E-05
2.067088,-4.699779E-06,2.067088,2.559116E-05
2.067882,-7.888914E-06,2.067882,2.558103E-05
2.068676,-1.12459E-05,2.068676,2.557606E-05
2.069471,-7.721065E-06,2.069471,2.557214E-05
2.070265,-1.02388E-05,2.070265,2.557015E-05
2.071059,-1.829557E-05,2.071059,2.557247E-05
2.071853,-2.836652E-05,2.071853,2.558396E-05
2.072647,-2.970932E-05,2.072647,2.561469E-05
2.073441,-2.668803E-05,2.073441,2.562694E-05
2.074235,-2.803082E-05,2.074235,2.563128E-05
2.075029,-3.323415E-05,2.075029,2.564018E-05
2.075824,-3.40734E-05,2.075824,2.566341E-05
2.076618,-3.121996E-05,2.076618,2.569124E-05
2.077412,-2.618448E-05,2.077412,2.572167E-05
2.078206,-1.863127E-05,2.078206,2.574869E-05
2.079,-9.903105E-06,2.079,2.575476E-05
2.079794,-5.203327E-06,2.079794,2.574162E-05
2.080588,-4.196231E-06,2.080588,2.572586E-05
2.081382,-2.853437E-06,2.081382,2.571864E-05
2.082176,-1.846342E-06,2.082176,2.571406E-05
2.082971,-5.203327E-06,2.082971,2.571364E-05
2.083765,-9.231709E-06,2.083765,2.571532E-05
2.084559,-1.15816E-05,2.084559,2.572055E-05
2.085353,-1.611353E-05,2.085353,2.572793E-05
2.086147,-1.493858E-05,2.086147,2.5744E-05
2.086941,-1.359579E-05,2.086941,2.57575E-05
2.087735,-9.903105E-06,2.087735,2.576892E-05
2.088529,-5.203327E-06,2.088529,2.577477E-05
2.089324,3.524834E-06,2.089324,2.577615E-05
2.090118,1.05745E-05,2.090118,2.577683E-05
2.090912,8.89601E-06,2.090912,2.57836E-05
2.091706,4.531929E-06,2.091706,2.578824E-05
2.0925,-1.510643E-06,2.0925,2.578794E-05
2.093294,-8.224612E-06,2.093294,2.578355E-05
2.094088,-1.275654E-05,2.094088,2.578126E-05
2.094882,-2.433814E-05,2.094882,2.578152E-05
2.095676,-3.004501E-05,2.095676,2.579428E-05
2.096471,-3.004501E-05,2.096471,2.579552E-05
2.097265,-3.105211E-05,2.097265,2.580727E-05
2.098059,-2.635233E-05,2.098059,2.585357E-05
2.098853,-2.165255E-05,2.098853,2.589464E-05
2.099647,-1.393149E-05,2.099647,2.588185E-05
2.100441,-4.36408E-06,2.100441,2.584067E-05
2.101235,4.531929E-06,2.101235,2.581807E-05
2.102029,1.05745E-05,2.102029,2.581787E-05
2.102823,1.594568E-05,2.102823,2.582093E-05
2.103618,1.997406E-05,2.103618,2.582881E-05
2.104412,2.265965E-05,2.104412,2.584363E-05
2.105206,3.3402E-05,2.105206,2.586151E-05
2.106,3.776608E-05,2.106,2.591515E-05
2.106794,3.105211E-05,2.106794,2.599443E-05
2.107588,2.232395E-05,2.107588,2.604295E-05
2.108382,1.359579E-05,2.108382,2.605219E-05
2.109176,3.860533E-06,2.109176,2.60445E-05
2.109971,1.007095E-06,2.109971,2.603383E-05
2.110765,-4.36408E-06,2.110765,2.60242E-05
2.111559,-1.15816E-05,2.111559,2.601618E-05
2.112353,-1.812772E-05,2.112353,2.60152E-05
2.113147,-2.1149E-05,2.113147,2.602757E-05
2.113941,-2.299535E-05,2.113941,2.604892E-05
2.114735,-2.668803E-05,2.114735,2.607396E-05
2.115529,-3.071641E-05,2.115529,2.610876E-05
2.116323,-3.675899E-05,2.116323,2.61571E-05
2.117118,-4.750134E-05,2.117118,2.622507E-05
2.117912,-7.200732E-05,2.117912,2.634699E-05
2.118706,-0.0001015488,2.118706,2.664665E-05
2.1195,-0.0001242084,2.1195,2.724715E-05
2.120294,-0.0001084306,2.120294,2.812053E-05
2.121088,-5.790799E-05,2.121088,2.874846E-05
2.121882,2.232395E-05,2.121882,2.891483E-05
2.122676,0.0001018845,2.122676,2.893307E-05
2.123471,0.0001488823,2.123471,2.948679E-05
2.124265,0.0001514,2.124265,3.065131E-05
2.125059,0.0001038987,2.125059,3.18106E-05
2.125853,4.599069E-05,2.125853,3.233823E-05
2.126647,1.19173E-05,2.126647,3.244042E-05
2.127441,-1.292439E-05,2.127441,3.244588E-05
2.128235,-3.40734E-05,2.128235,3.245103E-05
2.129029,-4.515145E-05,2.129029,3.250585E-05
2.129823,-4.112306E-05,2.129823,3.260516E-05
2.130618,-3.37377E-05,2.130618,3.268765E-05
2.131412,-3.591974E-05,2.131412,3.274298E-05
2.132206,-3.121996E-05,2.132206,3.280252E-05
2.133,-2.702373E-05,2.133,3.283848E-05
2.133794,-2.568093E-05,2.133794,3.2867E-05
2.134588,-2.366674E-05,2.134588,3.28989E-05
2.135382,-2.232395E-05,2.135382,3.292217E-05
2.136176,-2.333104E-05,2.136176,3.294016E-05
2.136971,-2.400244E-05,2.136971,3.296515E-05
2.137765,-2.635233E-05,2.137765,3.29929E-05
2.138559,-2.836652E-05,2.138559,3.302601E-05
2.139353,-2.719158E-05,2.139353,3.306293E-05
2.140147,-3.038071E-05,2.140147,3.309753E-05
2.140941,-3.23949E-05,2.140941,3.314076E-05
2.141735,-3.23949E-05,2.141735,3.319055E-05
2.142529,-3.071641E-05,2.142529,3.324075E-05
2.143323,-3.30663E-05,2.143323,3.328365E-05
2.144118,-3.3402E-05,2.144118,3.332875E-05
