X[s],R TRICEPS BRACHII: EMG 6,X[s],R TRICEPS BRACHII: EMG 6->filter (FilterSlidingRMS27)
0,0,0,0
0.000794118,0,0.000794118,0
0.001588235,0,0.001588235,0
0.002382353,0,0.002382353,0
0.003176471,0,0.003176471,0
0.003970588,0,0.003970588,0
0.004764706,0,0.004764706,0
0.005558823,0,0.005558823,0
0.006352941,0,0.006352941,0
0.007147059,0,0.007147059,0
0.007941176,0,0.007941176,0
0.008735294,0,0.008735294,0
0.009529412,0,0.009529412,0
0.01032353,0,0.01032353,0
0.01111765,0,0.01111765,0
0.01191176,0,0.01191176,0
0.01270588,0,0.01270588,0
0.0135,0,0.0135,0
0.01429412,0,0.01429412,0
0.01508824,0,0.01508824,0
0.01588235,0,0.01588235,0
0.01667647,0,0.01667647,0
0.01747059,0,0.01747059,0
0.01826471,0,0.01826471,0
0.01905882,0,0.01905882,0
0.01985294,0,0.01985294,0
0.02064706,0,0.02064706,0
0.02144118,0,0.02144118,0
0.02223529,0,0.02223529,0
0.02302941,0,0.02302941,0
0.02382353,0,0.02382353,0
0.02461765,0,0.02461765,0
0.02541176,0,0.02541176,0
0.02620588,0,0.02620588,0
0.027,0,0.027,0
0.02779412,0,0.02779412,0
0.02858824,0,0.02858824,0
0.02938235,0,0.02938235,0
0.03017647,0,0.03017647,0
0.03097059,0,0.03097059,0
0.0317647,0,0.0317647,0
0.03255882,0,0.03255882,0
0.03335294,0,0.03335294,0
0.03414706,0,0.03414706,0
0.03494118,0,0.03494118,0
0.03573529,0,0.03573529,0
0.03652941,0,0.03652941,0
0.03732353,0,0.03732353,0
0.03811765,0,0.03811765,0
0.03891176,0,0.03891176,0
0.03970588,0,0.03970588,0
0.0405,0,0.0405,0
0.04129412,0,0.04129412,0
0.04208823,0,0.04208823,0
0.04288235,0,0.04288235,0
0.04367647,0,0.04367647,0
0.04447059,0,0.04447059,0
0.04526471,0,0.04526471,0
0.04605882,0,0.04605882,0
0.04685294,0,0.04685294,0
0.04764706,0,0.04764706,0
0.04844118,0,0.04844118,0
0.04923529,0,0.04923529,0
0.05002941,0,0.05002941,0
0.05082353,0,0.05082353,0
0.05161764,0,0.05161764,0
0.05241176,0,0.05241176,0
0.05320588,0,0.05320588,0
0.054,0,0.054,0
0.05479412,0,0.05479412,0
0.05558823,0,0.05558823,0
0.05638235,0,0.05638235,0
0.05717647,0,0.05717647,0
0.05797059,0,0.05797059,0
0.0587647,0,0.0587647,0
0.05955882,0,0.05955882,0
0.06035294,0,0.06035294,0
0.06114706,0,0.06114706,0
0.06194118,0,0.06194118,0
0.0627353,0,0.0627353,0
0.06352941,0,0.06352941,0
0.06432353,0,0.06432353,0
0.06511765,0,0.06511765,0
0.06591176,0,0.06591176,0
0.06670588,0,0.06670588,0
0.0675,0,0.0675,0
0.06829412,0,0.06829412,0
0.06908824,0,0.06908824,0
0.06988236,0,0.06988236,0
0.07067647,0,0.07067647,0
0.07147059,0,0.07147059,0
0.0722647,0,0.0722647,0
0.07305882,0,0.07305882,0
0.07385294,0,0.07385294,0
0.07464705,0,0.07464705,0
0.07544117,0,0.07544117,0
0.07623529,0,0.07623529,0
0.07702941,0,0.07702941,0
0.07782353,0,0.07782353,0
0.07861765,0,0.07861765,0
0.07941176,0,0.07941176,0
0.08020588,0,0.08020588,0
0.081,0,0.081,0
0.08179411,0,0.08179411,0
0.08258823,0,0.08258823,0
0.08338235,0,0.08338235,0
0.08417647,0,0.08417647,0
0.08497059,0,0.08497059,0
0.08576471,0,0.08576471,0
0.08655882,0,0.08655882,0
0.08735294,0,0.08735294,0
0.08814706,0,0.08814706,0
0.08894117,0,0.08894117,0
0.08973529,0,0.08973529,0
0.09052941,0,0.09052941,0
0.09132352,0,0.09132352,0
0.09211764,0,0.09211764,0
0.09291176,0,0.09291176,0
0.09370588,0,0.09370588,0
0.0945,-4.87E-06,0.0945,0
0.09529412,6.21E-06,0.09529412,0
0.09608823,1.56E-05,0.09608823,0
0.09688235,1.33E-05,0.09688235,0
0.09767647,7.72E-06,0.09767647,0
0.09847058,8.90E-06,0.09847058,0
0.0992647,6.55E-06,0.0992647,0
0.1000588,5.54E-06,0.1000588,0
0.1008529,-6.55E-06,0.1008529,0
0.1016471,-1.86E-05,0.1016471,0
0.1024412,-1.91E-05,0.1024412,0
0.1032353,-1.76E-05,0.1032353,0
0.1040294,-1.64E-05,0.1040294,0
0.1048235,-1.51E-05,0.1048235,0
0.1056176,-8.39E-06,0.1056176,0
0.1064118,-2.85E-06,0.1064118,0
0.1072059,-2.35E-06,0.1072059,0
0.108,-5.20E-06,0.108,0
0.1087941,-1.01E-06,0.1087941,0
0.1095882,3.19E-06,0.1095882,0
0.1103823,9.23E-06,0.1103823,0
0.1111765,9.90E-06,0.1111765,0
0.1119706,1.49E-05,0.1119706,0
0.1127647,1.86E-05,0.1127647,0
0.1135588,2.05E-05,0.1135588,0
0.1143529,2.37E-05,0.1143529,0
0.1151471,2.03E-05,0.1151471,0
0.1159412,1.36E-05,0.1159412,0
0.1167353,6.88E-06,0.1167353,0
0.1175294,1.68E-07,0.1175294,0
0.1183235,-2.52E-06,0.1183235,0
0.1191176,-8.90E-06,0.1191176,0
0.1199118,-9.06E-06,0.1199118,0
0.1207059,-8.56E-06,0.1207059,0
0.1215,-7.55E-06,0.1215,0
0.1222941,-2.18E-06,0.1222941,0
0.1230882,1.51E-06,0.1230882,0
0.1238824,5.87E-06,0.1238824,0
0.1246765,7.22E-06,0.1246765,0
0.1254706,1.44E-05,0.1254706,0
0.1262647,1.78E-05,0.1262647,0
0.1270588,1.29E-05,0.1270588,0
0.1278529,6.55E-06,0.1278529,0
0.1286471,6.21E-06,0.1286471,0
0.1294412,2.52E-06,0.1294412,0
0.1302353,-6.21E-06,0.1302353,0
0.1310294,-1.14E-05,0.1310294,0
0.1318235,-3.59E-05,0.1318235,0
0.1326177,-4.88E-05,0.1326177,0
0.1334118,-5.42E-05,0.1334118,0
0.1342059,-5.39E-05,0.1342059,0
0.135,-3.68E-05,0.135,0
0.1357941,-2.94E-05,0.1357941,0
0.1365882,-2.37E-05,0.1365882,0
0.1373824,-1.76E-05,0.1373824,0
0.1381765,-1.78E-05,0.1381765,0
0.1389706,-1.19E-05,0.1389706,0
0.1397647,-8.56E-06,0.1397647,0
0.1405588,-5.87E-06,0.1405588,0
0.1413529,-3.36E-06,0.1413529,0
0.1421471,-1.09E-05,0.1421471,0
0.1429412,-2.27E-05,0.1429412,0
0.1437353,-1.91E-05,0.1437353,0
0.1445294,-1.12E-05,0.1445294,0
0.1453235,-5.54E-06,0.1453235,0
0.1461176,-1.68E-06,0.1461176,0
0.1469118,-2.18E-06,0.1469118,0
0.1477059,-8.56E-06,0.1477059,0
0.1485,-2.25E-05,0.1485,0
0.1492941,-3.46E-05,0.1492941,0
0.1500882,-2.37E-05,0.1500882,0
0.1508823,-2.52E-06,0.1508823,0
0.1516765,6.04E-06,0.1516765,0
0.1524706,8.39E-07,0.1524706,0
0.1532647,-2.10E-05,0.1532647,0
0.1540588,-3.54E-05,0.1540588,0
0.1548529,-2.72E-05,0.1548529,0
0.1556471,-1.31E-05,0.1556471,0
0.1564412,-5.20E-06,0.1564412,0
0.1572353,-1.01E-06,0.1572353,0
0.1580294,1.17E-06,0.1580294,0
0.1588235,1.09E-05,0.1588235,0
0.1596176,1.80E-05,0.1596176,0
0.1604118,2.03E-05,0.1604118,0
0.1612059,1.98E-05,0.1612059,0
0.162,8.22E-06,0.162,0
0.1627941,7.05E-06,0.1627941,0
0.1635882,1.19E-05,0.1635882,0
0.1643824,6.04E-06,0.1643824,0
0.1651765,7.55E-06,0.1651765,0
0.1659706,5.04E-07,0.1659706,0
0.1667647,-3.34E-05,0.1667647,0
0.1675588,-3.64E-05,0.1675588,0
0.1683529,-1.33E-05,0.1683529,0
0.1691471,-1.39E-05,0.1691471,0
0.1699412,-2.64E-05,0.1699412,0
0.1707353,-3.17E-05,0.1707353,0
0.1715294,-3.14E-05,0.1715294,0
0.1723235,-3.41E-05,0.1723235,0
0.1731176,-2.67E-05,0.1731176,0
0.1739118,-2.38E-05,0.1739118,0
0.1747059,-1.93E-05,0.1747059,0
0.1755,-8.56E-06,0.1755,0
0.1762941,3.69E-06,0.1762941,0
0.1770882,6.55E-06,0.1770882,0
0.1778823,1.02E-05,0.1778823,0
0.1786765,1.53E-05,0.1786765,0
0.1794706,1.17E-05,0.1794706,0
0.1802647,8.22E-06,0.1802647,0
0.1810588,8.39E-07,0.1810588,0
0.1818529,-2.35E-06,0.1818529,0
0.182647,-3.52E-06,0.182647,0
0.1834412,-3.69E-06,0.1834412,0
0.1842353,-7.55E-06,0.1842353,0
0.1850294,-7.22E-06,0.1850294,0
0.1858235,-2.85E-06,0.1858235,0
0.1866176,-5.04E-06,0.1866176,0
0.1874118,-9.23E-06,0.1874118,0
0.1882059,-1.59E-05,0.1882059,0
0.189,-2.13E-05,0.189,0
0.1897941,-1.44E-05,0.1897941,0
0.1905882,-7.89E-06,0.1905882,0
0.1913823,-2.85E-06,0.1913823,0
0.1921765,-3.02E-06,0.1921765,0
0.1929706,-7.55E-06,0.1929706,0
0.1937647,-1.12E-05,0.1937647,0
0.1945588,-7.22E-06,0.1945588,0
0.1953529,-2.52E-06,0.1953529,0
0.1961471,-1.68E-07,0.1961471,0
0.1969412,2.85E-06,0.1969412,0
0.1977353,5.04E-07,0.1977353,0
0.1985294,-8.73E-06,0.1985294,0
0.1993235,-1.83E-05,0.1993235,0
0.2001176,-1.63E-05,0.2001176,0
0.2009118,-2.97E-05,0.2009118,0
0.2017059,-2.18E-05,0.2017059,0
0.2025,-7.05E-06,0.2025,0
0.2032941,-1.29E-05,0.2032941,0
0.2040882,-1.85E-05,0.2040882,0
0.2048824,-2.03E-05,0.2048824,0
0.2056765,-2.10E-05,0.2056765,0
0.2064706,-2.03E-05,0.2064706,0
0.2072647,-1.73E-05,0.2072647,0
0.2080588,-1.09E-05,0.2080588,0
0.2088529,-4.53E-06,0.2088529,0
0.2096471,-1.17E-06,0.2096471,0
0.2104412,6.55E-06,0.2104412,0
0.2112353,5.04E-07,0.2112353,0
0.2120294,-3.36E-07,0.2120294,0
0.2128235,3.52E-06,0.2128235,0
0.2136176,4.53E-06,0.2136176,0
0.2144118,9.23E-06,0.2144118,0
0.2152059,1.19E-05,0.2152059,0
0.216,1.23E-05,0.216,0
0.2167941,1.23E-05,0.2167941,0
0.2175882,5.71E-06,0.2175882,0
0.2183823,1.85E-06,0.2183823,0
0.2191765,1.17E-06,0.2191765,0
0.2199706,1.85E-06,0.2199706,0
0.2207647,-8.73E-06,0.2207647,0
0.2215588,-1.02E-05,0.2215588,0
0.2223529,-8.56E-06,0.2223529,0
0.223147,-6.21E-06,0.223147,0
0.2239412,-5.87E-06,0.2239412,0
0.2247353,-7.55E-06,0.2247353,0
0.2255294,-9.57E-06,0.2255294,0
0.2263235,-2.80E-05,0.2263235,0
0.2271176,-3.31E-05,0.2271176,0
0.2279118,-2.85E-05,0.2279118,0
0.2287059,-3.34E-05,0.2287059,0
0.2295,-3.64E-05,0.2295,0
0.2302941,-2.64E-05,0.2302941,0
0.2310882,-2.06E-05,0.2310882,0
0.2318823,-2.70E-05,0.2318823,0
0.2326765,-2.87E-05,0.2326765,0
0.2334706,-1.61E-05,0.2334706,0
0.2342647,-5.54E-06,0.2342647,0
0.2350588,-6.21E-06,0.2350588,0
0.2358529,-6.38E-06,0.2358529,0
0.2366471,-3.19E-06,0.2366471,0
0.2374412,-6.55E-06,0.2374412,0
0.2382353,-1.16E-05,0.2382353,0
0.2390294,-3.41E-05,0.2390294,0
0.2398235,-5.49E-05,0.2398235,0
0.2406176,-3.39E-05,0.2406176,0
0.2414118,-1.66E-05,0.2414118,0
0.2422059,-1.11E-05,0.2422059,0
0.243,2.18E-06,0.243,0
0.2437941,1.53E-05,0.2437941,0
0.2445882,2.43E-05,0.2445882,0
0.2453824,3.11E-05,0.2453824,0
0.2461765,3.29E-05,0.2461765,0
0.2469706,2.64E-05,0.2469706,0
0.2477647,1.23E-05,0.2477647,0
0.2485588,-1.68E-06,0.2485588,0
0.2493529,-1.46E-05,0.2493529,1.39E-05
0.250147,-1.98E-05,0.250147,1.39E-05
0.2509412,-2.90E-05,0.2509412,1.40E-05
0.2517353,-1.63E-05,0.2517353,1.41E-05
0.2525294,-1.34E-06,0.2525294,1.41E-05
0.2533235,5.20E-06,0.2533235,1.41E-05
0.2541176,1.46E-05,0.2541176,1.41E-05
0.2549118,1.59E-05,0.2549118,1.41E-05
0.2557059,1.59E-05,0.2557059,1.42E-05
0.2565,1.66E-05,0.2565,1.42E-05
0.2572941,9.57E-06,0.2572941,1.42E-05
0.2580882,3.19E-06,0.2580882,1.42E-05
0.2588823,-2.85E-06,0.2588823,1.42E-05
0.2596765,1.17E-06,0.2596765,1.42E-05
0.2604706,8.90E-06,0.2604706,1.42E-05
0.2612647,1.38E-05,0.2612647,1.42E-05
0.2620588,1.33E-05,0.2620588,1.43E-05
0.2628529,1.02E-05,0.2628529,1.43E-05
0.263647,3.86E-06,0.263647,1.43E-05
0.2644412,-1.68E-07,0.2644412,1.43E-05
0.2652353,-3.19E-06,0.2652353,1.43E-05
0.2660294,-1.02E-05,0.2660294,1.43E-05
0.2668235,-1.09E-05,0.2668235,1.43E-05
0.2676176,-1.19E-05,0.2676176,1.43E-05
0.2684118,-9.57E-06,0.2684118,1.43E-05
0.2692059,-1.33E-05,0.2692059,1.44E-05
0.27,-1.29E-05,0.27,1.44E-05
0.2707941,-1.21E-05,0.2707941,1.44E-05
0.2715882,-7.22E-06,0.2715882,1.44E-05
0.2723823,-2.85E-06,0.2723823,1.44E-05
0.2731765,-5.04E-06,0.2731765,1.44E-05
0.2739706,-1.06E-05,0.2739706,1.44E-05
0.2747647,-6.04E-06,0.2747647,1.44E-05
0.2755588,5.04E-07,0.2755588,1.44E-05
0.2763529,-7.55E-06,0.2763529,1.44E-05
0.2771471,-2.25E-05,0.2771471,1.44E-05
0.2779412,-3.86E-05,0.2779412,1.45E-05
0.2787353,-4.58E-05,0.2787353,1.47E-05
0.2795294,-4.28E-05,0.2795294,1.49E-05
0.2803235,-3.74E-05,0.2803235,1.51E-05
0.2811176,-2.20E-05,0.2811176,1.52E-05
0.2819118,-1.33E-05,0.2819118,1.53E-05
0.2827059,-1.19E-05,0.2827059,1.53E-05
0.2835,-7.89E-06,0.2835,1.53E-05
0.2842941,-6.88E-06,0.2842941,1.53E-05
0.2850882,-1.09E-05,0.2850882,1.53E-05
0.2858824,-5.20E-06,0.2858824,1.53E-05
0.2866765,3.19E-06,0.2866765,1.53E-05
0.2874706,-6.88E-06,0.2874706,1.53E-05
0.2882647,-9.90E-06,0.2882647,1.53E-05
0.2890588,-5.71E-06,0.2890588,1.54E-05
0.2898529,-2.85E-06,0.2898529,1.54E-05
0.2906471,2.01E-06,0.2906471,1.54E-05
0.2914412,3.69E-06,0.2914412,1.54E-05
0.2922353,-1.51E-06,0.2922353,1.54E-05
0.2930294,-8.39E-06,0.2930294,1.54E-05
0.2938235,-2.37E-05,0.2938235,1.54E-05
0.2946177,-1.73E-05,0.2946177,1.54E-05
0.2954118,5.04E-07,0.2954118,1.55E-05
0.2962059,3.52E-06,0.2962059,1.55E-05
0.297,8.39E-07,0.297,1.55E-05
0.2977941,3.36E-07,0.2977941,1.55E-05
0.2985882,4.53E-06,0.2985882,1.55E-05
0.2993824,4.20E-06,0.2993824,1.55E-05
0.3001765,-1.68E-07,0.3001765,1.55E-05
0.3009706,-8.39E-07,0.3009706,1.55E-05
0.3017647,1.17E-06,0.3017647,1.55E-05
0.3025588,1.85E-06,0.3025588,1.55E-05
0.3033529,4.53E-06,0.3033529,1.55E-05
0.3041471,1.68E-07,0.3041471,1.55E-05
0.3049412,-8.39E-07,0.3049412,1.55E-05
0.3057353,-3.36E-06,0.3057353,1.55E-05
0.3065294,1.51E-06,0.3065294,1.55E-05
0.3073235,6.88E-06,0.3073235,1.55E-05
0.3081176,6.88E-06,0.3081176,1.55E-05
0.3089118,6.71E-06,0.3089118,1.55E-05
0.3097059,-5.04E-07,0.3097059,1.55E-05
0.3105,-7.72E-06,0.3105,1.55E-05
0.3112941,-1.59E-05,0.3112941,1.55E-05
0.3120882,-1.31E-05,0.3120882,1.55E-05
0.3128823,-5.04E-06,0.3128823,1.55E-05
0.3136765,-4.53E-06,0.3136765,1.55E-05
0.3144706,-5.54E-06,0.3144706,1.55E-05
0.3152647,-3.69E-06,0.3152647,1.55E-05
0.3160588,-1.04E-05,0.3160588,1.55E-05
0.3168529,-1.09E-05,0.3168529,1.55E-05
0.317647,-7.55E-06,0.317647,1.56E-05
0.3184412,-6.88E-06,0.3184412,1.56E-05
0.3192353,-1.51E-06,0.3192353,1.56E-05
0.3200294,8.39E-07,0.3200294,1.56E-05
0.3208235,-5.20E-06,0.3208235,1.56E-05
0.3216176,-6.55E-06,0.3216176,1.56E-05
0.3224117,-3.52E-06,0.3224117,1.56E-05
0.3232059,-6.88E-06,0.3232059,1.56E-05
0.324,-1.12E-05,0.324,1.56E-05
0.3247941,-1.04E-05,0.3247941,1.56E-05
0.3255882,-1.29E-05,0.3255882,1.56E-05
0.3263823,-9.90E-06,0.3263823,1.56E-05
0.3271765,2.52E-06,0.3271765,1.56E-05
0.3279706,9.90E-06,0.3279706,1.56E-05
0.3287647,1.83E-05,0.3287647,1.56E-05
0.3295588,1.04E-05,0.3295588,1.57E-05
0.3303529,-2.03E-05,0.3303529,1.57E-05
0.331147,-2.32E-05,0.331147,1.57E-05
0.3319412,2.85E-06,0.3319412,1.58E-05
0.3327353,8.56E-06,0.3327353,1.58E-05
0.3335294,-5.87E-06,0.3335294,1.58E-05
0.3343235,-2.47E-05,0.3343235,1.58E-05
0.3351176,-3.39E-05,0.3351176,1.59E-05
0.3359118,-3.74E-05,0.3359118,1.60E-05
0.3367059,-3.69E-05,0.3367059,1.61E-05
0.3375,-3.11E-05,0.3375,1.62E-05
0.3382941,-3.24E-05,0.3382941,1.63E-05
0.3390882,-2.70E-05,0.3390882,1.64E-05
0.3398823,-1.53E-05,0.3398823,1.65E-05
0.3406765,-7.72E-06,0.3406765,1.65E-05
0.3414706,-1.51E-06,0.3414706,1.65E-05
0.3422647,1.51E-06,0.3422647,1.65E-05
0.3430588,-4.53E-06,0.3430588,1.65E-05
0.3438529,-1.61E-05,0.3438529,1.65E-05
0.344647,-1.86E-05,0.344647,1.66E-05
0.3454412,-4.53E-06,0.3454412,1.66E-05
0.3462353,1.17E-06,0.3462353,1.66E-05
0.3470294,-3.52E-06,0.3470294,1.66E-05
0.3478235,-8.90E-06,0.3478235,1.66E-05
0.3486176,-5.54E-06,0.3486176,1.66E-05
0.3494118,-1.23E-05,0.3494118,1.66E-05
0.3502059,-1.86E-05,0.3502059,1.66E-05
0.351,-2.17E-05,0.351,1.66E-05
0.3517941,-2.38E-05,0.3517941,1.66E-05
0.3525882,-1.76E-05,0.3525882,1.66E-05
0.3533823,-1.09E-05,0.3533823,1.66E-05
0.3541765,-8.22E-06,0.3541765,1.66E-05
0.3549706,1.17E-06,0.3549706,1.66E-05
0.3557647,1.01E-05,0.3557647,1.66E-05
0.3565588,8.56E-06,0.3565588,1.66E-05
0.3573529,7.89E-06,0.3573529,1.66E-05
0.3581471,1.59E-05,0.3581471,1.66E-05
0.3589412,1.56E-05,0.3589412,1.66E-05
0.3597353,1.85E-06,0.3597353,1.67E-05
0.3605294,-3.19E-06,0.3605294,1.66E-05
0.3613235,-4.36E-06,0.3613235,1.66E-05
0.3621176,-4.70E-06,0.3621176,1.66E-05
0.3629118,-3.69E-06,0.3629118,1.66E-05
0.3637059,1.17E-06,0.3637059,1.65E-05
0.3645,3.52E-06,0.3645,1.65E-05
0.3652941,-5.87E-06,0.3652941,1.65E-05
0.3660882,-1.41E-05,0.3660882,1.64E-05
0.3668824,-1.59E-05,0.3668824,1.65E-05
0.3676765,-1.54E-05,0.3676765,1.65E-05
0.3684706,-1.23E-05,0.3684706,1.65E-05
0.3692647,-7.55E-06,0.3692647,1.65E-05
0.3700588,-1.17E-06,0.3700588,1.65E-05
0.3708529,1.85E-06,0.3708529,1.65E-05
0.3716471,-8.90E-06,0.3716471,1.65E-05
0.3724412,-2.03E-05,0.3724412,1.65E-05
0.3732353,-2.17E-05,0.3732353,1.65E-05
0.3740294,-3.37E-05,0.3740294,1.66E-05
0.3748235,-3.46E-05,0.3748235,1.67E-05
0.3756177,-2.40E-05,0.3756177,1.68E-05
0.3764118,-2.13E-05,0.3764118,1.68E-05
0.3772059,-2.32E-05,0.3772059,1.68E-05
0.378,-1.83E-05,0.378,1.69E-05
0.3787941,-1.31E-05,0.3787941,1.69E-05
0.3795882,-9.40E-06,0.3795882,1.69E-05
0.3803824,-1.06E-05,0.3803824,1.69E-05
0.3811765,-4.36E-06,0.3811765,1.69E-05
0.3819706,7.89E-06,0.3819706,1.68E-05
0.3827647,1.46E-05,0.3827647,1.66E-05
0.3835588,1.23E-05,0.3835588,1.63E-05
0.3843529,1.44E-05,0.3843529,1.60E-05
0.3851471,1.59E-05,0.3851471,1.59E-05
0.3859412,1.59E-05,0.3859412,1.59E-05
0.3867353,1.59E-05,0.3867353,1.58E-05
0.3875294,1.51E-06,0.3875294,1.58E-05
0.3883235,-1.41E-05,0.3883235,1.58E-05
0.3891176,-1.63E-05,0.3891176,1.58E-05
0.3899118,-1.43E-05,0.3899118,1.58E-05
0.3907059,-2.00E-05,0.3907059,1.58E-05
0.3915,-2.33E-05,0.3915,1.59E-05
0.3922941,-2.89E-05,0.3922941,1.59E-05
0.3930882,-2.47E-05,0.3930882,1.60E-05
0.3938823,-1.91E-05,0.3938823,1.60E-05
0.3946765,-1.04E-05,0.3946765,1.60E-05
0.3954706,-6.21E-06,0.3954706,1.60E-05
0.3962647,-4.20E-06,0.3962647,1.60E-05
0.3970588,-1.85E-06,0.3970588,1.60E-05
0.3978529,-4.36E-06,0.3978529,1.60E-05
0.398647,-9.40E-06,0.398647,1.60E-05
0.3994412,-4.87E-06,0.3994412,1.59E-05
0.4002353,-5.04E-07,0.4002353,1.58E-05
0.4010294,-4.70E-06,0.4010294,1.58E-05
0.4018235,-4.20E-06,0.4018235,1.58E-05
0.4026176,-1.85E-06,0.4026176,1.58E-05
0.4034117,-4.20E-06,0.4034117,1.58E-05
0.4042059,-7.22E-06,0.4042059,1.56E-05
0.405,-1.06E-05,0.405,1.56E-05
0.4057941,-1.28E-05,0.4057941,1.56E-05
0.4065882,-6.21E-06,0.4065882,1.56E-05
0.4073823,-7.05E-06,0.4073823,1.56E-05
0.4081765,-4.87E-06,0.4081765,1.56E-05
0.4089706,-1.17E-05,0.4089706,1.56E-05
0.4097647,-3.44E-05,0.4097647,1.56E-05
0.4105588,-4.20E-05,0.4105588,1.56E-05
0.4113529,-1.80E-05,0.4113529,1.58E-05
0.412147,-6.21E-06,0.412147,1.58E-05
0.4129412,-5.87E-06,0.4129412,1.58E-05
0.4137353,-5.54E-06,0.4137353,1.58E-05
0.4145294,-5.54E-06,0.4145294,1.58E-05
0.4153235,-1.19E-05,0.4153235,1.58E-05
0.4161176,-2.74E-05,0.4161176,1.58E-05
0.4169118,-2.70E-05,0.4169118,1.58E-05
0.4177059,-2.45E-05,0.4177059,1.57E-05
0.4185,-1.56E-05,0.4185,1.57E-05
0.4192941,-5.04E-06,0.4192941,1.57E-05
0.4200882,-1.85E-06,0.4200882,1.57E-05
0.4208823,-9.90E-06,0.4208823,1.56E-05
0.4216765,-3.52E-06,0.4216765,1.55E-05
0.4224706,1.34E-05,0.4224706,1.54E-05
0.4232647,2.27E-05,0.4232647,1.53E-05
0.4240588,2.10E-05,0.4240588,1.53E-05
0.4248529,1.91E-05,0.4248529,1.53E-05
0.4256471,1.53E-05,0.4256471,1.53E-05
0.4264412,1.26E-05,0.4264412,1.54E-05
0.4272353,3.19E-06,0.4272353,1.54E-05
0.4280294,-1.12E-05,0.4280294,1.54E-05
0.4288235,-1.90E-05,0.4288235,1.54E-05
0.4296176,-1.23E-05,0.4296176,1.54E-05
0.4304118,-2.85E-06,0.4304118,1.54E-05
0.4312059,-3.52E-06,0.4312059,1.54E-05
0.432,-5.71E-06,0.432,1.54E-05
0.4327941,-1.23E-05,0.4327941,1.54E-05
0.4335882,-1.83E-05,0.4335882,1.54E-05
0.4343823,-1.49E-05,0.4343823,1.54E-05
0.4351765,-8.39E-06,0.4351765,1.54E-05
0.4359706,-2.35E-06,0.4359706,1.55E-05
0.4367647,-4.87E-06,0.4367647,1.55E-05
0.4375588,8.39E-07,0.4375588,1.54E-05
0.4383529,6.88E-06,0.4383529,1.54E-05
0.4391471,1.19E-05,0.4391471,1.54E-05
0.4399412,2.18E-05,0.4399412,1.54E-05
0.4407353,2.85E-05,0.4407353,1.54E-05
0.4415294,3.07E-05,0.4415294,1.55E-05
0.4423235,3.02E-05,0.4423235,1.56E-05
0.4431176,2.43E-05,0.4431176,1.57E-05
0.4439118,1.59E-05,0.4439118,1.57E-05
0.4447059,3.02E-06,0.4447059,1.57E-05
0.4455,-1.33E-05,0.4455,1.57E-05
0.4462941,-1.58E-05,0.4462941,1.58E-05
0.4470882,-1.59E-05,0.4470882,1.58E-05
0.4478824,-1.17E-05,0.4478824,1.58E-05
0.4486765,-8.22E-06,0.4486765,1.58E-05
0.4494706,-3.19E-06,0.4494706,1.58E-05
0.4502647,4.53E-06,0.4502647,1.58E-05
0.4510588,4.20E-06,0.4510588,1.57E-05
0.4518529,2.52E-06,0.4518529,1.56E-05
0.4526471,5.20E-06,0.4526471,1.56E-05
0.4534412,7.89E-06,0.4534412,1.56E-05
0.4542353,8.22E-06,0.4542353,1.56E-05
0.4550294,5.20E-06,0.4550294,1.56E-05
0.4558235,-1.68E-07,0.4558235,1.55E-05
0.4566177,-3.86E-06,0.4566177,1.55E-05
0.4574118,-1.90E-05,0.4574118,1.54E-05
0.4582059,-3.04E-05,0.4582059,1.55E-05
0.459,-3.44E-05,0.459,1.56E-05
0.4597941,-3.68E-05,0.4597941,1.57E-05
0.4605882,-4.15E-05,0.4605882,1.58E-05
0.4613824,-4.68E-05,0.4613824,1.60E-05
0.4621765,-3.71E-05,0.4621765,1.62E-05
0.4629706,-3.04E-05,0.4629706,1.63E-05
0.4637647,-3.54E-05,0.4637647,1.64E-05
0.4645588,-2.84E-05,0.4645588,1.65E-05
0.4653529,-1.90E-05,0.4653529,1.66E-05
0.4661471,-1.66E-05,0.4661471,1.66E-05
0.4669412,-1.36E-05,0.4669412,1.66E-05
0.4677353,-1.29E-05,0.4677353,1.66E-05
0.4685294,-1.09E-05,0.4685294,1.67E-05
0.4693235,-8.39E-06,0.4693235,1.67E-05
0.4701176,-9.23E-06,0.4701176,1.67E-05
0.4709118,-1.36E-05,0.4709118,1.67E-05
0.4717059,-2.03E-05,0.4717059,1.67E-05
0.4725,-3.11E-05,0.4725,1.67E-05
0.4732941,-4.28E-05,0.4732941,1.68E-05
0.4740882,-4.13E-05,0.4740882,1.70E-05
0.4748823,-3.14E-05,0.4748823,1.71E-05
0.4756765,-2.58E-05,0.4756765,1.72E-05
0.4764706,-1.83E-05,0.4764706,1.72E-05
0.4772647,-8.90E-06,0.4772647,1.71E-05
0.4780588,-9.74E-06,0.4780588,1.71E-05
0.4788529,-2.20E-05,0.4788529,1.70E-05
0.479647,-2.17E-05,0.479647,1.69E-05
0.4804412,-1.63E-05,0.4804412,1.69E-05
0.4812353,-3.86E-06,0.4812353,1.69E-05
0.4820294,2.37E-05,0.4820294,1.68E-05
0.4828235,2.84E-05,0.4828235,1.68E-05
0.4836176,2.35E-05,0.4836176,1.68E-05
0.4844117,2.57E-05,0.4844117,1.69E-05
0.4852059,2.53E-05,0.4852059,1.69E-05
0.486,2.43E-05,0.486,1.70E-05
0.4867941,2.20E-05,0.4867941,1.70E-05
0.4875882,1.59E-05,0.4875882,1.71E-05
0.4883823,9.90E-06,0.4883823,1.71E-05
0.4891765,1.09E-05,0.4891765,1.70E-05
0.4899706,1.43E-05,0.4899706,1.67E-05
0.4907647,1.06E-05,0.4907647,1.66E-05
0.4915588,8.90E-06,0.4915588,1.66E-05
0.4923529,7.89E-06,0.4923529,1.66E-05
0.493147,8.90E-06,0.493147,1.66E-05
0.4939412,6.71E-06,0.4939412,1.66E-05
0.4947353,5.54E-06,0.4947353,1.65E-05
0.4955294,1.68E-06,0.4955294,1.64E-05
0.4963235,-1.51E-06,0.4963235,1.63E-05
0.4971176,-7.89E-06,0.4971176,1.63E-05
0.4979118,-1.76E-05,0.4979118,1.63E-05
0.4987059,-2.67E-05,0.4987059,1.63E-05
0.4995,-3.32E-05,0.4995,1.63E-05
0.5002941,-2.84E-05,0.5002941,1.64E-05
0.5010882,-6.21E-06,0.5010882,1.64E-05
0.5018824,-3.69E-06,0.5018824,1.64E-05
0.5026765,-7.22E-06,0.5026765,1.64E-05
0.5034706,-3.52E-06,0.5034706,1.64E-05
0.5042647,1.01E-06,0.5042647,1.64E-05
0.5050588,1.01E-06,0.5050588,1.63E-05
0.5058529,-5.54E-06,0.5058529,1.63E-05
0.5066471,-1.24E-05,0.5066471,1.63E-05
0.5074412,-1.58E-05,0.5074412,1.63E-05
0.5082353,-1.43E-05,0.5082353,1.63E-05
0.5090294,-1.16E-05,0.5090294,1.63E-05
0.5098235,-1.23E-05,0.5098235,1.64E-05
0.5106176,-7.89E-06,0.5106176,1.64E-05
0.5114118,-3.36E-06,0.5114118,1.64E-05
0.5122059,-3.36E-07,0.5122059,1.63E-05
0.513,6.55E-06,0.513,1.63E-05
0.5137941,1.76E-05,0.5137941,1.63E-05
0.5145882,1.19E-05,0.5145882,1.64E-05
0.5153823,-1.71E-05,0.5153823,1.64E-05
0.5161765,-3.39E-05,0.5161765,1.64E-05
0.5169706,-1.76E-05,0.5169706,1.65E-05
0.5177647,-1.12E-05,0.5177647,1.65E-05
0.5185588,-7.72E-06,0.5185588,1.65E-05
0.5193529,-2.85E-06,0.5193529,1.65E-05
0.520147,-3.19E-06,0.520147,1.65E-05
0.5209412,2.52E-06,0.5209412,1.65E-05
0.5217353,2.35E-06,0.5217353,1.65E-05
0.5225294,-1.51E-06,0.5225294,1.65E-05
0.5233235,-1.85E-06,0.5233235,1.65E-05
0.5241176,2.01E-06,0.5241176,1.65E-05
0.5249118,5.04E-06,0.5249118,1.65E-05
0.5257059,3.86E-06,0.5257059,1.65E-05
0.5265,-2.18E-06,0.5265,1.64E-05
0.5272941,-7.89E-06,0.5272941,1.64E-05
0.5280882,-2.17E-05,0.5280882,1.63E-05
0.5288823,-2.23E-05,0.5288823,1.61E-05
0.5296764,-2.48E-05,0.5296764,1.60E-05
0.5304706,-2.97E-05,0.5304706,1.59E-05
0.5312647,-3.88E-05,0.5312647,1.59E-05
0.5320588,-4.33E-05,0.5320588,1.61E-05
0.5328529,-4.13E-05,0.5328529,1.62E-05
0.5336471,-4.28E-05,0.5336471,1.64E-05
0.5344412,-3.44E-05,0.5344412,1.66E-05
0.5352353,-2.80E-05,0.5352353,1.67E-05
0.5360294,-2.65E-05,0.5360294,1.67E-05
0.5368235,-2.50E-05,0.5368235,1.68E-05
0.5376176,-1.09E-05,0.5376176,1.69E-05
0.5384117,5.04E-07,0.5384117,1.69E-05
0.5392058,6.21E-06,0.5392058,1.69E-05
0.54,1.73E-05,0.54,1.69E-05
0.5407941,2.27E-05,0.5407941,1.69E-05
0.5415882,1.91E-05,0.5415882,1.69E-05
0.5423824,1.59E-05,0.5423824,1.70E-05
0.5431765,1.78E-05,0.5431765,1.70E-05
0.5439706,2.40E-05,0.5439706,1.70E-05
0.5447647,2.87E-05,0.5447647,1.70E-05
0.5455588,2.53E-05,0.5455588,1.71E-05
0.5463529,2.08E-05,0.5463529,1.71E-05
0.547147,1.53E-05,0.547147,1.72E-05
0.5479411,-2.18E-06,0.5479411,1.72E-05
0.5487353,-6.88E-06,0.5487353,1.72E-05
0.5495294,-9.74E-06,0.5495294,1.72E-05
0.5503235,-1.49E-05,0.5503235,1.72E-05
0.5511177,-1.28E-05,0.5511177,1.72E-05
0.5519118,-4.53E-06,0.5519118,1.72E-05
0.5527059,3.36E-06,0.5527059,1.72E-05
0.5535,8.90E-06,0.5535,1.72E-05
0.5542941,-1.34E-06,0.5542941,1.72E-05
0.5550882,-7.55E-06,0.5550882,1.72E-05
0.5558823,-1.56E-05,0.5558823,1.72E-05
0.5566764,-2.30E-05,0.5566764,1.73E-05
0.5574706,-2.89E-05,0.5574706,1.73E-05
0.5582647,-2.53E-05,0.5582647,1.74E-05
0.5590588,-1.39E-05,0.5590588,1.74E-05
0.559853,-8.90E-06,0.559853,1.75E-05
0.5606471,-9.74E-06,0.5606471,1.75E-05
0.5614412,-1.11E-05,0.5614412,1.74E-05
0.5622353,-1.09E-05,0.5622353,1.74E-05
0.5630294,-2.85E-06,0.5630294,1.75E-05
0.5638235,-3.19E-06,0.5638235,1.74E-05
0.5646176,-1.09E-05,0.5646176,1.74E-05
0.5654117,-1.95E-05,0.5654117,1.75E-05
0.5662059,-3.64E-05,0.5662059,1.75E-05
0.567,-4.28E-05,0.567,1.76E-05
0.5677941,-3.86E-05,0.5677941,1.78E-05
0.5685883,-4.13E-05,0.5685883,1.79E-05
0.5693824,-3.69E-05,0.5693824,1.80E-05
0.5701765,-3.52E-05,0.5701765,1.82E-05
0.5709706,-3.96E-05,0.5709706,1.83E-05
0.5717647,-3.26E-05,0.5717647,1.84E-05
0.5725588,-2.94E-05,0.5725588,1.85E-05
0.5733529,-2.70E-05,0.5733529,1.86E-05
0.574147,-1.90E-05,0.574147,1.86E-05
0.5749412,-1.19E-05,0.5749412,1.86E-05
0.5757353,-9.90E-06,0.5757353,1.86E-05
0.5765294,-8.90E-06,0.5765294,1.86E-05
0.5773235,-4.20E-06,0.5773235,1.86E-05
0.5781176,-1.68E-07,0.5781176,1.86E-05
0.5789118,1.01E-06,0.5789118,1.86E-05
0.5797059,3.86E-06,0.5797059,1.86E-05
0.5805,2.85E-06,0.5805,1.85E-05
0.5812941,1.68E-07,0.5812941,1.85E-05
0.5820882,8.73E-06,0.5820882,1.85E-05
0.5828823,1.06E-05,0.5828823,1.85E-05
0.5836765,1.28E-05,0.5836765,1.85E-05
0.5844706,2.43E-05,0.5844706,1.85E-05
0.5852647,2.33E-05,0.5852647,1.84E-05
0.5860588,1.96E-05,0.5860588,1.83E-05
0.5868529,1.85E-05,0.5868529,1.83E-05
0.587647,-3.02E-06,0.587647,1.82E-05
0.5884412,-2.60E-05,0.5884412,1.81E-05
0.5892353,-2.10E-05,0.5892353,1.81E-05
0.5900294,-7.55E-06,0.5900294,1.81E-05
0.5908235,1.68E-06,0.5908235,1.81E-05
0.5916176,5.87E-06,0.5916176,1.81E-05
0.5924118,6.21E-06,0.5924118,1.81E-05
0.5932059,6.38E-06,0.5932059,1.81E-05
0.594,5.71E-06,0.594,1.81E-05
0.5947941,2.52E-06,0.5947941,1.81E-05
0.5955882,-6.71E-07,0.5955882,1.81E-05
0.5963823,-1.68E-06,0.5963823,1.81E-05
0.5971764,-4.36E-06,0.5971764,1.81E-05
0.5979706,-3.02E-06,0.5979706,1.81E-05
0.5987647,-1.34E-06,0.5987647,1.81E-05
0.5995588,-5.04E-07,0.5995588,1.81E-05
0.6003529,3.02E-06,0.6003529,1.80E-05
0.6011471,1.23E-05,0.6011471,1.80E-05
0.6019412,1.16E-05,0.6019412,1.80E-05
0.6027353,6.55E-06,0.6027353,1.79E-05
0.6035294,3.52E-06,0.6035294,1.79E-05
0.6043235,3.86E-06,0.6043235,1.79E-05
0.6051176,1.17E-06,0.6051176,1.79E-05
0.6059117,1.51E-06,0.6059117,1.79E-05
0.6067058,-5.54E-06,0.6067058,1.79E-05
0.6075,-1.49E-05,0.6075,1.79E-05
0.6082941,-1.09E-05,0.6082941,1.79E-05
0.6090882,-4.20E-06,0.6090882,1.79E-05
0.6098824,-2.85E-06,0.6098824,1.79E-05
0.6106765,-9.40E-06,0.6106765,1.79E-05
0.6114706,-1.28E-05,0.6114706,1.79E-05
0.6122647,-6.04E-06,0.6122647,1.79E-05
0.6130588,-5.04E-07,0.6130588,1.79E-05
0.6138529,1.68E-07,0.6138529,1.79E-05
0.614647,7.89E-06,0.614647,1.79E-05
0.6154411,5.87E-06,0.6154411,1.79E-05
0.6162353,-4.20E-06,0.6162353,1.79E-05
0.6170294,-1.16E-05,0.6170294,1.79E-05
0.6178235,-2.22E-05,0.6178235,1.79E-05
0.6186177,-4.92E-05,0.6186177,1.79E-05
0.6194118,-5.25E-05,0.6194118,1.81E-05
0.6202059,-4.06E-05,0.6202059,1.84E-05
0.621,-3.91E-05,0.621,1.85E-05
0.6217941,-2.90E-05,0.6217941,1.86E-05
0.6225882,-1.71E-05,0.6225882,1.87E-05
0.6233823,-1.49E-05,0.6233823,1.86E-05
0.6241764,-1.04E-05,0.6241764,1.86E-05
0.6249706,-8.56E-06,0.6249706,1.85E-05
0.6257647,-1.01E-06,0.6257647,1.84E-05
0.6265588,2.52E-06,0.6265588,1.84E-05
0.627353,-1.09E-05,0.627353,1.83E-05
0.6281471,-3.98E-05,0.6281471,1.83E-05
0.6289412,-3.71E-05,0.6289412,1.85E-05
0.6297353,-1.29E-05,0.6297353,1.86E-05
0.6305294,-2.52E-06,0.6305294,1.86E-05
0.6313235,4.20E-06,0.6313235,1.86E-05
0.6321176,1.59E-05,0.6321176,1.86E-05
0.6329117,2.58E-05,0.6329117,1.86E-05
0.6337059,1.46E-05,0.6337059,1.86E-05
0.6345,2.18E-06,0.6345,1.86E-05
0.6352941,-1.51E-06,0.6352941,1.86E-05
0.6360883,-8.39E-07,0.6360883,1.86E-05
0.6368824,5.20E-06,0.6368824,1.85E-05
0.6376765,1.02E-05,0.6376765,1.85E-05
0.6384706,4.20E-06,0.6384706,1.85E-05
0.6392647,-9.57E-06,0.6392647,1.85E-05
0.6400588,-1.26E-05,0.6400588,1.85E-05
0.6408529,-1.38E-05,0.6408529,1.85E-05
0.641647,-1.39E-05,0.641647,1.85E-05
0.6424412,-1.38E-05,0.6424412,1.84E-05
0.6432353,-1.07E-05,0.6432353,1.84E-05
0.6440294,-1.31E-05,0.6440294,1.83E-05
0.6448235,-1.46E-05,0.6448235,1.83E-05
0.6456177,-7.55E-06,0.6456177,1.84E-05
0.6464118,-1.51E-06,0.6464118,1.84E-05
0.6472059,-4.53E-06,0.6472059,1.84E-05
0.648,-1.29E-05,0.648,1.84E-05
0.6487941,-2.00E-05,0.6487941,1.84E-05
0.6495882,-1.56E-05,0.6495882,1.84E-05
0.6503823,-1.36E-05,0.6503823,1.84E-05
0.6511765,-1.16E-05,0.6511765,1.84E-05
0.6519706,-8.39E-06,0.6519706,1.85E-05
0.6527647,-5.54E-06,0.6527647,1.85E-05
0.6535588,-8.56E-06,0.6535588,1.85E-05
0.6543529,-1.53E-05,0.6543529,1.85E-05
0.6551471,-1.66E-05,0.6551471,1.85E-05
0.6559412,-5.20E-06,0.6559412,1.85E-05
0.6567353,-2.85E-06,0.6567353,1.85E-05
0.6575294,-6.21E-06,0.6575294,1.85E-05
0.6583235,-5.87E-06,0.6583235,1.85E-05
0.6591176,-1.68E-07,0.6591176,1.85E-05
0.6599118,5.20E-06,0.6599118,1.84E-05
0.6607059,1.46E-05,0.6607059,1.82E-05
0.6615,2.13E-05,0.6615,1.82E-05
0.6622941,1.73E-05,0.6622941,1.82E-05
0.6630882,3.52E-06,0.6630882,1.83E-05
0.6638823,-1.49E-05,0.6638823,1.83E-05
0.6646765,-2.53E-05,0.6646765,1.83E-05
0.6654706,-3.58E-05,0.6654706,1.83E-05
0.6662647,-3.47E-05,0.6662647,1.84E-05
0.6670588,-2.45E-05,0.6670588,1.84E-05
0.6678529,-2.00E-05,0.6678529,1.84E-05
0.6686471,-1.76E-05,0.6686471,1.84E-05
0.6694412,-1.54E-05,0.6694412,1.84E-05
0.6702353,-1.66E-05,0.6702353,1.85E-05
0.6710294,-1.49E-05,0.6710294,1.85E-05
0.6718235,-5.04E-06,0.6718235,1.85E-05
0.6726176,-1.68E-07,0.6726176,1.85E-05
0.6734117,3.36E-07,0.6734117,1.84E-05
0.6742059,6.21E-06,0.6742059,1.84E-05
0.675,1.68E-05,0.675,1.84E-05
0.6757941,1.98E-05,0.6757941,1.84E-05
0.6765882,1.73E-05,0.6765882,1.84E-05
0.6773823,1.73E-05,0.6773823,1.84E-05
0.6781765,1.44E-05,0.6781765,1.84E-05
0.6789706,8.22E-06,0.6789706,1.84E-05
0.6797647,-8.39E-07,0.6797647,1.84E-05
0.6805588,-4.53E-06,0.6805588,1.84E-05
0.6813529,-7.55E-06,0.6813529,1.84E-05
0.682147,-1.64E-05,0.682147,1.84E-05
0.6829411,-1.83E-05,0.6829411,1.84E-05
0.6837353,-1.63E-05,0.6837353,1.84E-05
0.6845294,-1.29E-05,0.6845294,1.84E-05
0.6853235,-1.12E-05,0.6853235,1.84E-05
0.6861176,-3.86E-06,0.6861176,1.85E-05
0.6869118,-3.19E-06,0.6869118,1.85E-05
0.6877059,-7.89E-06,0.6877059,1.85E-05
0.6885,-1.16E-05,0.6885,1.85E-05
0.6892941,-7.22E-06,0.6892941,1.85E-05
0.6900882,8.39E-07,0.6900882,1.84E-05
0.6908823,-3.36E-07,0.6908823,1.84E-05
0.6916764,-6.88E-06,0.6916764,1.83E-05
0.6924706,-4.03E-06,0.6924706,1.82E-05
0.6932647,-4.53E-06,0.6932647,1.81E-05
0.6940588,-1.43E-05,0.6940588,1.81E-05
0.6948529,-2.47E-05,0.6948529,1.81E-05
0.6956471,-2.67E-05,0.6956471,1.82E-05
0.6964412,-2.58E-05,0.6964412,1.82E-05
0.6972353,-2.64E-05,0.6972353,1.83E-05
0.6980294,-2.17E-05,0.6980294,1.83E-05
0.6988235,-1.43E-05,0.6988235,1.83E-05
0.6996176,-4.87E-06,0.6996176,1.84E-05
0.7004117,-4.20E-06,0.7004117,1.84E-05
0.7012058,-7.22E-06,0.7012058,1.84E-05
0.702,-5.04E-07,0.702,1.84E-05
0.7027941,5.20E-06,0.7027941,1.84E-05
0.7035882,8.90E-06,0.7035882,1.84E-05
0.7043824,1.19E-05,0.7043824,1.84E-05
0.7051765,9.06E-06,0.7051765,1.84E-05
0.7059706,1.19E-05,0.7059706,1.84E-05
0.7067647,7.89E-06,0.7067647,1.84E-05
0.7075588,1.68E-06,0.7075588,1.84E-05
0.7083529,1.85E-06,0.7083529,1.83E-05
0.709147,-4.20E-06,0.709147,1.82E-05
0.7099411,-1.33E-05,0.7099411,1.81E-05
0.7107353,-2.57E-05,0.7107353,1.79E-05
0.7115294,-1.86E-05,0.7115294,1.78E-05
0.7123235,-9.23E-06,0.7123235,1.77E-05
0.7131177,-1.19E-05,0.7131177,1.76E-05
0.7139118,-1.12E-05,0.7139118,1.75E-05
0.7147059,-4.03E-06,0.7147059,1.75E-05
0.7155,-3.52E-06,0.7155,1.74E-05
0.7162941,-2.35E-06,0.7162941,1.74E-05
0.7170882,1.85E-06,0.7170882,1.74E-05
0.7178823,-1.17E-06,0.7178823,1.74E-05
0.7186764,-1.14E-05,0.7186764,1.74E-05
0.7194706,-1.53E-05,0.7194706,1.74E-05
0.7202647,-8.90E-06,0.7202647,1.74E-05
0.7210588,-2.18E-06,0.7210588,1.74E-05
0.721853,6.04E-06,0.721853,1.73E-05
0.7226471,9.57E-06,0.7226471,1.72E-05
0.7234412,2.01E-06,0.7234412,1.71E-05
0.7242353,2.35E-06,0.7242353,1.69E-05
0.7250294,5.87E-06,0.7250294,1.68E-05
0.7258235,2.18E-06,0.7258235,1.68E-05
0.7266176,1.68E-07,0.7266176,1.67E-05
0.7274117,5.87E-06,0.7274117,1.67E-05
0.7282059,3.19E-06,0.7282059,1.67E-05
0.729,-1.39E-05,0.729,1.67E-05
0.7297941,-4.62E-05,0.7297941,1.67E-05
0.7305882,-3.78E-05,0.7305882,1.68E-05
0.7313824,-1.83E-05,0.7313824,1.70E-05
0.7321765,-2.27E-05,0.7321765,1.69E-05
0.7329706,-4.20E-06,0.7329706,1.69E-05
0.7337647,8.56E-06,0.7337647,1.69E-05
0.7345588,5.87E-06,0.7345588,1.68E-05
0.7353529,1.17E-06,0.7353529,1.68E-05
0.736147,-1.73E-05,0.736147,1.67E-05
0.7369412,-2.67E-05,0.7369412,1.67E-05
0.7377353,-2.37E-05,0.7377353,1.67E-05
0.7385294,-2.30E-05,0.7385294,1.68E-05
0.7393235,-1.96E-05,0.7393235,1.68E-05
0.7401176,-1.31E-05,0.7401176,1.68E-05
0.7409118,-1.04E-05,0.7409118,1.68E-05
0.7417059,-9.23E-06,0.7417059,1.68E-05
0.7425,-1.16E-05,0.7425,1.68E-05
0.7432941,-6.21E-06,0.7432941,1.68E-05
0.7440882,-2.18E-06,0.7440882,1.68E-05
0.7448823,-2.01E-06,0.7448823,1.68E-05
0.7456765,3.36E-06,0.7456765,1.68E-05
0.7464706,9.23E-06,0.7464706,1.68E-05
0.7472647,1.02E-05,0.7472647,1.68E-05
0.7480588,5.87E-06,0.7480588,1.68E-05
0.7488529,3.86E-06,0.7488529,1.68E-05
0.749647,6.38E-06,0.749647,1.66E-05
0.7504412,9.06E-06,0.7504412,1.66E-05
0.7512353,-1.68E-06,0.7512353,1.66E-05
0.7520294,-9.23E-06,0.7520294,1.66E-05
0.7528235,-1.24E-05,0.7528235,1.66E-05
0.7536176,-1.56E-05,0.7536176,1.66E-05
0.7544118,-1.49E-05,0.7544118,1.66E-05
0.7552059,-7.55E-06,0.7552059,1.66E-05
0.756,-3.02E-06,0.756,1.66E-05
0.7567941,-9.90E-06,0.7567941,1.66E-05
0.7575882,-1.17E-06,0.7575882,1.66E-05
0.7583823,1.39E-05,0.7583823,1.66E-05
0.7591764,-1.01E-06,0.7591764,1.66E-05
0.7599706,-1.16E-05,0.7599706,1.66E-05
0.7607647,-1.46E-05,0.7607647,1.66E-05
0.7615588,-1.70E-05,0.7615588,1.66E-05
0.7623529,-1.86E-05,0.7623529,1.66E-05
0.7631471,-2.65E-05,0.7631471,1.67E-05
0.7639412,-3.27E-05,0.7639412,1.67E-05
0.7647353,-3.78E-05,0.7647353,1.68E-05
0.7655294,-3.37E-05,0.7655294,1.69E-05
0.7663235,-2.80E-05,0.7663235,1.69E-05
0.7671176,-2.00E-05,0.7671176,1.69E-05
0.7679117,-1.19E-05,0.7679117,1.70E-05
0.7687058,-6.04E-06,0.7687058,1.70E-05
0.7695,4.20E-06,0.7695,1.70E-05
0.7702941,1.19E-05,0.7702941,1.70E-05
0.7710882,8.22E-06,0.7710882,1.70E-05
0.7718824,5.54E-06,0.7718824,1.70E-05
0.7726765,-6.71E-07,0.7726765,1.70E-05
0.7734706,-1.01E-05,0.7734706,1.70E-05
0.7742647,-2.57E-05,0.7742647,1.70E-05
0.7750588,-4.15E-05,0.7750588,1.71E-05
0.7758529,-4.55E-05,0.7758529,1.72E-05
0.776647,-2.30E-05,0.776647,1.74E-05
0.7774411,-8.90E-06,0.7774411,1.75E-05
0.7782353,-1.09E-05,0.7782353,1.74E-05
0.7790294,-1.56E-05,0.7790294,1.74E-05
0.7798235,-1.44E-05,0.7798235,1.74E-05
0.7806177,-6.88E-06,0.7806177,1.73E-05
0.7814118,-7.05E-06,0.7814118,1.72E-05
0.7822059,-8.39E-06,0.7822059,1.70E-05
0.783,8.90E-06,0.783,1.68E-05
0.7837941,2.05E-05,0.7837941,1.67E-05
0.7845882,2.50E-05,0.7845882,1.66E-05
0.7853823,3.07E-05,0.7853823,1.66E-05
0.7861764,3.12E-05,0.7861764,1.66E-05
0.7869706,2.67E-05,0.7869706,1.66E-05
0.7877647,1.53E-05,0.7877647,1.67E-05
0.7885588,-1.53E-05,0.7885588,1.67E-05
0.789353,-4.52E-05,0.789353,1.67E-05
0.7901471,-3.21E-05,0.7901471,1.69E-05
0.7909412,-2.06E-05,0.7909412,1.69E-05
0.7917353,-1.39E-05,0.7917353,1.70E-05
0.7925294,-8.56E-06,0.7925294,1.69E-05
0.7933235,-9.23E-06,0.7933235,1.69E-05
0.7941176,-1.02E-05,0.7941176,1.69E-05
0.7949117,-1.24E-05,0.7949117,1.68E-05
0.7957059,-9.74E-06,0.7957059,1.68E-05
0.7965,-1.12E-05,0.7965,1.67E-05
0.7972941,-1.43E-05,0.7972941,1.67E-05
0.7980883,-1.33E-05,0.7980883,1.67E-05
0.7988824,-1.02E-05,0.7988824,1.68E-05
0.7996765,-4.87E-06,0.7996765,1.68E-05
0.8004706,-2.18E-06,0.8004706,1.67E-05
0.8012647,-5.04E-07,0.8012647,1.67E-05
0.8020588,-1.51E-06,0.8020588,1.67E-05
0.8028529,1.17E-06,0.8028529,1.67E-05
0.803647,-2.85E-06,0.803647,1.67E-05
0.8044412,-2.35E-06,0.8044412,1.67E-05
0.8052353,1.51E-06,0.8052353,1.67E-05
0.8060294,-1.68E-07,0.8060294,1.67E-05
0.8068235,-1.68E-07,0.8068235,1.66E-05
0.8076177,-1.51E-06,0.8076177,1.66E-05
0.8084118,-1.51E-06,0.8084118,1.65E-05
0.8092059,-5.87E-06,0.8092059,1.65E-05
0.81,-1.39E-05,0.81,1.65E-05
0.8107941,-1.16E-05,0.8107941,1.65E-05
0.8115882,-1.63E-05,0.8115882,1.65E-05
0.8123823,-2.10E-05,0.8123823,1.65E-05
0.8131765,-1.53E-05,0.8131765,1.65E-05
0.8139706,-1.46E-05,0.8139706,1.66E-05
0.8147647,-7.89E-06,0.8147647,1.66E-05
0.8155588,-5.04E-07,0.8155588,1.65E-05
0.8163529,-4.53E-06,0.8163529,1.64E-05
0.8171471,-1.31E-05,0.8171471,1.62E-05
0.8179412,-1.73E-05,0.8179412,1.61E-05
0.8187353,-1.02E-05,0.8187353,1.60E-05
0.8195294,-4.87E-06,0.8195294,1.58E-05
0.8203235,-1.51E-06,0.8203235,1.57E-05
0.8211176,1.51E-06,0.8211176,1.56E-05
0.8219118,1.17E-06,0.8219118,1.54E-05
0.8227059,5.04E-07,0.8227059,1.54E-05
0.8235,5.04E-07,0.8235,1.53E-05
0.8242941,8.39E-07,0.8242941,1.52E-05
0.8250882,-2.85E-06,0.8250882,1.52E-05
0.8258823,-3.86E-06,0.8258823,1.52E-05
0.8266765,-8.90E-06,0.8266765,1.52E-05
0.8274706,-1.43E-05,0.8274706,1.52E-05
0.8282647,-1.96E-05,0.8282647,1.52E-05
0.8290588,-1.36E-05,0.8290588,1.53E-05
0.8298529,-5.20E-06,0.8298529,1.53E-05
0.8306471,-1.51E-06,0.8306471,1.53E-05
0.8314412,-2.85E-06,0.8314412,1.53E-05
0.8322353,-5.20E-06,0.8322353,1.53E-05
0.8330294,-6.38E-06,0.8330294,1.53E-05
0.8338235,3.52E-06,0.8338235,1.53E-05
0.8346176,1.09E-05,0.8346176,1.52E-05
0.8354117,1.53E-05,0.8354117,1.52E-05
0.8362059,2.20E-05,0.8362059,1.51E-05
0.837,4.20E-05,0.837,1.52E-05
0.8377941,4.45E-05,0.8377941,1.53E-05
0.8385882,3.00E-05,0.8385882,1.55E-05
0.8393824,1.29E-05,0.8393824,1.55E-05
0.8401765,-1.78E-05,0.8401765,1.55E-05
0.8409706,-5.94E-05,0.8409706,1.56E-05
0.8417647,-9.27E-05,0.8417647,1.59E-05
0.8425588,-8.07E-05,0.8425588,1.68E-05
0.8433529,-3.83E-05,0.8433529,1.74E-05
0.844147,-2.06E-05,0.844147,1.75E-05
0.8449411,-1.63E-05,0.8449411,1.75E-05
0.8457353,-1.70E-05,0.8457353,1.76E-05
0.8465294,-1.70E-05,0.8465294,1.76E-05
0.8473235,-1.44E-05,0.8473235,1.76E-05
0.8481176,-5.87E-06,0.8481176,1.76E-05
0.8489118,3.02E-06,0.8489118,1.76E-05
0.8497059,1.09E-05,0.8497059,1.76E-05
0.8505,1.83E-05,0.8505,1.76E-05
0.8512941,1.75E-05,0.8512941,1.77E-05
0.8520882,1.63E-05,0.8520882,1.77E-05
0.8528823,2.18E-05,0.8528823,1.77E-05
0.8536764,2.43E-05,0.8536764,1.77E-05
0.8544706,2.00E-05,0.8544706,1.78E-05
0.8552647,1.43E-05,0.8552647,1.78E-05
0.8560588,5.20E-06,0.8560588,1.78E-05
0.8568529,-8.22E-06,0.8568529,1.78E-05
0.8576471,-8.56E-06,0.8576471,1.78E-05
0.8584412,-9.57E-06,0.8584412,1.78E-05
0.8592353,-1.19E-05,0.8592353,1.78E-05
0.8600294,-1.73E-05,0.8600294,1.78E-05
0.8608235,-2.13E-05,0.8608235,1.79E-05
0.8616176,-2.08E-05,0.8616176,1.79E-05
0.8624117,-1.83E-05,0.8624117,1.79E-05
0.8632059,-1.33E-05,0.8632059,1.79E-05
0.864,-5.87E-06,0.864,1.80E-05
0.8647941,-8.39E-07,0.8647941,1.80E-05
0.8655882,3.52E-06,0.8655882,1.80E-05
0.8663824,4.20E-06,0.8663824,1.80E-05
0.8671765,6.55E-06,0.8671765,1.79E-05
0.8679706,8.90E-06,0.8679706,1.79E-05
0.8687647,4.03E-06,0.8687647,1.77E-05
0.8695588,1.17E-06,0.8695588,1.74E-05
0.8703529,-7.89E-06,0.8703529,1.73E-05
0.871147,-3.99E-05,0.871147,1.72E-05
0.8719411,-5.47E-05,0.8719411,1.72E-05
0.8727353,-3.04E-05,0.8727353,1.75E-05
0.8735294,-2.00E-05,0.8735294,1.75E-05
0.8743235,-1.76E-05,0.8743235,1.76E-05
0.8751177,-1.39E-05,0.8751177,1.76E-05
0.8759118,-1.43E-05,0.8759118,1.76E-05
0.8767059,-1.39E-05,0.8767059,1.76E-05
0.8775,-1.70E-05,0.8775,1.76E-05
0.8782941,-1.86E-05,0.8782941,1.75E-05
0.8790882,-2.13E-05,0.8790882,1.74E-05
0.8798823,-1.23E-05,0.8798823,1.74E-05
0.8806764,1.51E-06,0.8806764,1.75E-05
0.8814706,5.04E-06,0.8814706,1.75E-05
0.8822647,-1.85E-06,0.8822647,1.74E-05
0.8830588,-1.23E-05,0.8830588,1.74E-05
0.8838529,-1.17E-05,0.8838529,1.74E-05
0.8846471,-4.53E-06,0.8846471,1.74E-05
0.8854412,-4.36E-06,0.8854412,1.74E-05
0.8862353,-1.36E-05,0.8862353,1.74E-05
0.8870294,-1.80E-05,0.8870294,1.74E-05
0.8878235,-1.66E-05,0.8878235,1.74E-05
0.8886176,-1.96E-05,0.8886176,1.74E-05
0.8894117,-1.90E-05,0.8894117,1.75E-05
0.8902059,-1.64E-05,0.8902059,1.75E-05
0.891,-1.12E-05,0.891,1.75E-05
0.8917941,-3.02E-06,0.8917941,1.75E-05
0.8925882,-2.85E-06,0.8925882,1.75E-05
0.8933823,-1.01E-06,0.8933823,1.75E-05
0.8941765,-2.01E-06,0.8941765,1.74E-05
0.8949706,5.54E-06,0.8949706,1.74E-05
0.8957647,5.87E-06,0.8957647,1.74E-05
0.8965588,-4.53E-06,0.8965588,1.74E-05
0.8973529,-1.49E-05,0.8973529,1.74E-05
0.898147,-1.02E-05,0.898147,1.74E-05
0.8989412,2.18E-06,0.8989412,1.74E-05
0.8997353,1.85E-06,0.8997353,1.74E-05
0.9005294,-1.68E-07,0.9005294,1.74E-05
0.9013235,-3.36E-07,0.9013235,1.74E-05
0.9021176,-5.04E-06,0.9021176,1.74E-05
0.9029117,-1.90E-05,0.9029117,1.74E-05
0.9037059,-2.87E-05,0.9037059,1.74E-05
0.9045,-3.52E-05,0.9045,1.74E-05
0.9052941,-3.07E-05,0.9052941,1.75E-05
0.9060882,-1.90E-05,0.9060882,1.76E-05
0.9068823,-1.09E-05,0.9068823,1.76E-05
0.9076765,-1.14E-05,0.9076765,1.76E-05
0.9084706,-9.23E-06,0.9084706,1.77E-05
0.9092647,-8.56E-06,0.9092647,1.77E-05
0.9100588,-6.21E-06,0.9100588,1.77E-05
0.9108529,-1.38E-05,0.9108529,1.76E-05
0.911647,-9.90E-06,0.911647,1.76E-05
0.9124411,-3.86E-06,0.9124411,1.76E-05
0.9132353,-5.87E-06,0.9132353,1.76E-05
0.9140294,5.20E-06,0.9140294,1.76E-05
0.9148235,2.06E-05,0.9148235,1.75E-05
0.9156176,3.14E-05,0.9156176,1.75E-05
0.9164118,2.90E-05,0.9164118,1.74E-05
0.9172059,1.19E-05,0.9172059,1.75E-05
0.918,-5.87E-06,0.918,1.74E-05
0.9187941,-1.06E-05,0.9187941,1.74E-05
0.9195882,-1.23E-05,0.9195882,1.74E-05
0.9203823,-1.46E-05,0.9203823,1.74E-05
0.9211764,-1.54E-05,0.9211764,1.74E-05
0.9219705,-1.63E-05,0.9219705,1.74E-05
0.9227647,2.52E-06,0.9227647,1.74E-05
0.9235588,7.72E-06,0.9235588,1.74E-05
0.9243529,-5.87E-06,0.9243529,1.74E-05
0.9251471,-9.57E-06,0.9251471,1.74E-05
0.9259412,-8.90E-06,0.9259412,1.74E-05
0.9267353,-1.06E-05,0.9267353,1.74E-05
0.9275294,-7.05E-06,0.9275294,1.73E-05
0.9283235,-1.17E-06,0.9283235,1.73E-05
0.9291176,8.39E-07,0.9291176,1.73E-05
0.9299117,5.04E-07,0.9299117,1.73E-05
0.9307058,1.17E-06,0.9307058,1.73E-05
0.9315,2.52E-06,0.9315,1.73E-05
0.9322941,2.85E-06,0.9322941,1.73E-05
0.9330882,-1.01E-06,0.9330882,1.73E-05
0.9338824,-1.06E-05,0.9338824,1.72E-05
0.9346765,-1.90E-05,0.9346765,1.72E-05
0.9354706,-1.83E-05,0.9354706,1.73E-05
0.9362647,-1.02E-05,0.9362647,1.73E-05
0.9370588,-6.21E-06,0.9370588,1.73E-05
0.9378529,-5.37E-06,0.9378529,1.73E-05
0.938647,-6.88E-06,0.938647,1.73E-05
0.9394411,-1.85E-06,0.9394411,1.73E-05
0.9402353,5.71E-06,0.9402353,1.73E-05
0.9410294,5.54E-06,0.9410294,1.73E-05
0.9418235,1.17E-06,0.9418235,1.73E-05
0.9426177,-4.87E-06,0.9426177,1.73E-05
0.9434118,-5.54E-06,0.9434118,1.73E-05
0.9442059,-6.88E-06,0.9442059,1.73E-05
0.945,-8.56E-06,0.945,1.72E-05
0.9457941,-9.74E-06,0.9457941,1.72E-05
0.9465882,-1.49E-05,0.9465882,1.71E-05
0.9473823,-2.10E-05,0.9473823,1.71E-05
0.9481764,-1.63E-05,0.9481764,1.71E-05
0.9489706,-8.22E-06,0.9489706,1.71E-05
0.9497647,1.51E-06,0.9497647,1.71E-05
0.9505588,9.74E-06,0.9505588,1.71E-05
0.951353,1.36E-05,0.951353,1.71E-05
0.9521471,7.55E-06,0.9521471,1.71E-05
0.9529412,2.85E-06,0.9529412,1.71E-05
0.9537353,-1.17E-06,0.9537353,1.71E-05
0.9545294,-3.52E-06,0.9545294,1.71E-05
0.9553235,-2.20E-05,0.9553235,1.71E-05
0.9561176,-4.01E-05,0.9561176,1.71E-05
0.9569117,-1.63E-05,0.9569117,1.72E-05
0.9577059,3.86E-06,0.9577059,1.73E-05
0.9585,6.38E-06,0.9585,1.73E-05
0.9592941,1.17E-06,0.9592941,1.73E-05
0.9600882,-5.87E-06,0.9600882,1.72E-05
0.9608824,-1.17E-06,0.9608824,1.72E-05
0.9616765,3.19E-06,0.9616765,1.72E-05
0.9624706,-1.68E-07,0.9624706,1.71E-05
0.9632647,-5.20E-06,0.9632647,1.71E-05
0.9640588,-8.39E-06,0.9640588,1.71E-05
0.9648529,-6.21E-06,0.9648529,1.71E-05
0.965647,-4.70E-06,0.965647,1.71E-05
0.9664412,-5.54E-06,0.9664412,1.71E-05
0.9672353,-4.87E-06,0.9672353,1.71E-05
0.9680294,-3.69E-06,0.9680294,1.71E-05
0.9688235,-4.36E-06,0.9688235,1.71E-05
0.9696176,-7.22E-06,0.9696176,1.71E-05
0.9704118,-1.49E-05,0.9704118,1.71E-05
0.9712059,-2.33E-05,0.9712059,1.71E-05
0.972,-2.38E-05,0.972,1.72E-05
0.9727941,-2.40E-05,0.9727941,1.72E-05
0.9735882,-2.53E-05,0.9735882,1.73E-05
0.9743823,-2.55E-05,0.9743823,1.73E-05
0.9751765,-1.83E-05,0.9751765,1.74E-05
0.9759706,-1.78E-05,0.9759706,1.74E-05
0.9767647,-2.10E-05,0.9767647,1.74E-05
0.9775588,-2.50E-05,0.9775588,1.75E-05
0.9783529,-2.17E-05,0.9783529,1.75E-05
0.979147,-1.59E-05,0.979147,1.76E-05
0.9799412,-9.90E-06,0.9799412,1.74E-05
0.9807353,-2.85E-06,0.9807353,1.73E-05
0.9815294,-7.72E-06,0.9815294,1.72E-05
0.9823235,-1.19E-05,0.9823235,1.72E-05
0.9831176,-5.87E-06,0.9831176,1.72E-05
0.9839118,-1.17E-06,0.9839118,1.72E-05
0.9847059,-3.36E-07,0.9847059,1.72E-05
0.9855,-8.22E-06,0.9855,1.72E-05
0.9862941,-8.22E-06,0.9862941,1.72E-05
0.9870882,-5.20E-06,0.9870882,1.71E-05
0.9878823,-1.85E-06,0.9878823,1.71E-05
0.9886764,5.04E-07,0.9886764,1.70E-05
0.9894706,-1.68E-07,0.9894706,1.70E-05
0.9902647,3.36E-06,0.9902647,1.70E-05
0.9910588,1.09E-05,0.9910588,1.70E-05
0.9918529,1.31E-05,0.9918529,1.70E-05
0.9926471,1.71E-05,0.9926471,1.70E-05
0.9934412,2.00E-05,0.9934412,1.70E-05
0.9942353,2.42E-05,0.9942353,1.70E-05
0.9950294,2.20E-05,0.9950294,1.71E-05
0.9958235,1.01E-05,0.9958235,1.71E-05
0.9966176,4.70E-06,0.9966176,1.71E-05
0.9974117,1.06E-05,0.9974117,1.71E-05
0.9982058,-1.85E-06,0.9982058,1.71E-05
0.999,-1.29E-05,0.999,1.71E-05
0.9997941,-5.04E-07,0.9997941,1.71E-05
1.000588,3.36E-07,1.000588,1.71E-05
1.001382,-1.85E-06,1.001382,1.71E-05
1.002176,-1.68E-07,1.002176,1.71E-05
1.002971,-2.85E-06,1.002971,1.71E-05
1.003765,-3.69E-06,1.003765,1.71E-05
1.004559,-2.52E-06,1.004559,1.71E-05
1.005353,-7.55E-06,1.005353,1.71E-05
1.006147,-6.21E-06,1.006147,1.71E-05
1.006941,-1.17E-06,1.006941,1.71E-05
1.007735,3.36E-07,1.007735,1.71E-05
1.008529,-2.85E-06,1.008529,1.70E-05
1.009323,-4.87E-06,1.009323,1.70E-05
1.010118,-2.18E-06,1.010118,1.70E-05
1.010912,-5.54E-06,1.010912,1.70E-05
1.011706,-8.39E-06,1.011706,1.70E-05
1.0125,-1.16E-05,1.0125,1.70E-05
1.013294,-1.09E-05,1.013294,1.69E-05
1.014088,-1.17E-05,1.014088,1.68E-05
1.014882,-1.16E-05,1.014882,1.67E-05
1.015676,-1.02E-05,1.015676,1.66E-05
1.016471,-1.70E-05,1.016471,1.65E-05
1.017265,-3.17E-05,1.017265,1.65E-05
1.018059,-4.85E-05,1.018059,1.66E-05
1.018853,-5.25E-05,1.018853,1.68E-05
1.019647,-3.68E-05,1.019647,1.71E-05
1.020441,-1.98E-05,1.020441,1.72E-05
1.021235,-1.63E-05,1.021235,1.72E-05
1.022029,-1.09E-05,1.022029,1.73E-05
1.022824,-1.02E-05,1.022824,1.73E-05
1.023618,-1.53E-05,1.023618,1.73E-05
1.024412,-1.85E-05,1.024412,1.72E-05
1.025206,-1.86E-05,1.025206,1.71E-05
1.026,-2.17E-05,1.026,1.69E-05
1.026794,-2.17E-05,1.026794,1.69E-05
1.027588,-1.19E-05,1.027588,1.70E-05
1.028382,-1.68E-07,1.028382,1.70E-05
1.029176,7.89E-06,1.029176,1.69E-05
1.029971,1.26E-05,1.029971,1.69E-05
1.030765,-1.68E-07,1.030765,1.69E-05
1.031559,-3.34E-05,1.031559,1.69E-05
1.032353,-5.69E-05,1.032353,1.70E-05
1.033147,-4.40E-05,1.033147,1.73E-05
1.033941,-2.42E-05,1.033941,1.75E-05
1.034735,-1.96E-05,1.034735,1.75E-05
1.035529,-1.26E-05,1.035529,1.74E-05
1.036324,1.17E-06,1.036324,1.73E-05
1.037118,5.71E-06,1.037118,1.73E-05
1.037912,2.85E-06,1.037912,1.73E-05
1.038706,8.56E-06,1.038706,1.72E-05
1.0395,1.33E-05,1.0395,1.70E-05
1.040294,1.23E-05,1.040294,1.70E-05
1.041088,1.02E-05,1.041088,1.69E-05
1.041882,1.17E-06,1.041882,1.69E-05
1.042676,-5.37E-06,1.042676,1.69E-05
1.043471,-2.01E-06,1.043471,1.69E-05
1.044265,-2.85E-06,1.044265,1.69E-05
1.045059,-6.88E-06,1.045059,1.69E-05
1.045853,-5.54E-06,1.045853,1.69E-05
1.046647,-8.39E-07,1.046647,1.69E-05
1.047441,1.26E-05,1.047441,1.69E-05
1.048235,2.43E-05,1.048235,1.69E-05
1.049029,3.31E-05,1.049029,1.69E-05
1.049824,2.60E-05,1.049824,1.70E-05
1.050618,1.06E-05,1.050618,1.71E-05
1.051412,3.19E-06,1.051412,1.71E-05
1.052206,-8.22E-06,1.052206,1.71E-05
1.053,-1.59E-05,1.053,1.71E-05
1.053794,-3.12E-05,1.053794,1.71E-05
1.054588,-4.73E-05,1.054588,1.72E-05
1.055382,-3.64E-05,1.055382,1.74E-05
1.056176,-2.58E-05,1.056176,1.75E-05
1.056971,-2.77E-05,1.056971,1.76E-05
1.057765,-2.74E-05,1.057765,1.77E-05
1.058559,-2.13E-05,1.058559,1.77E-05
1.059353,-1.46E-05,1.059353,1.78E-05
1.060147,-6.21E-06,1.060147,1.78E-05
1.060941,-1.51E-06,1.060941,1.78E-05
1.061735,-2.52E-06,1.061735,1.77E-05
1.062529,-8.06E-06,1.062529,1.77E-05
1.063323,-9.06E-06,1.063323,1.77E-05
1.064118,-7.55E-06,1.064118,1.77E-05
1.064912,-1.04E-05,1.064912,1.77E-05
1.065706,-1.19E-05,1.065706,1.77E-05
1.0665,-8.90E-06,1.0665,1.77E-05
1.067294,-8.90E-06,1.067294,1.77E-05
1.068088,-1.02E-05,1.068088,1.77E-05
1.068882,-1.36E-05,1.068882,1.77E-05
1.069676,-2.18E-05,1.069676,1.77E-05
1.070471,-1.49E-05,1.070471,1.77E-05
1.071265,3.36E-07,1.071265,1.77E-05
1.072059,1.06E-05,1.072059,1.77E-05
1.072853,7.55E-06,1.072853,1.77E-05
1.073647,-2.35E-06,1.073647,1.78E-05
1.074441,-1.36E-05,1.074441,1.78E-05
1.075235,-3.14E-05,1.075235,1.78E-05
1.076029,-3.41E-05,1.076029,1.79E-05
1.076823,-3.14E-05,1.076823,1.80E-05
1.077618,-2.58E-05,1.077618,1.80E-05
1.078412,-1.46E-05,1.078412,1.80E-05
1.079206,-1.31E-05,1.079206,1.80E-05
1.08,-1.49E-05,1.08,1.81E-05
1.080794,-1.19E-05,1.080794,1.81E-05
1.081588,-6.88E-06,1.081588,1.81E-05
1.082382,-2.18E-06,1.082382,1.81E-05
1.083176,8.90E-06,1.083176,1.81E-05
1.083971,1.71E-05,1.083971,1.81E-05
1.084765,2.53E-05,1.084765,1.81E-05
1.085559,2.48E-05,1.085559,1.81E-05
1.086353,2.00E-05,1.086353,1.82E-05
1.087147,1.14E-05,1.087147,1.80E-05
1.087941,-1.68E-07,1.087941,1.79E-05
1.088735,-3.02E-06,1.088735,1.78E-05
1.089529,-1.51E-06,1.089529,1.78E-05
1.090324,8.56E-06,1.090324,1.78E-05
1.091118,1.68E-05,1.091118,1.74E-05
1.091912,1.88E-05,1.091912,1.67E-05
1.092706,1.93E-05,1.092706,1.61E-05
1.0935,2.03E-05,1.0935,1.60E-05
1.094294,5.54E-06,1.094294,1.60E-05
1.095088,-2.23E-05,1.095088,1.59E-05
1.095882,-3.27E-05,1.095882,1.60E-05
1.096676,-8.22E-06,1.096676,1.60E-05
1.097471,0,1.097471,1.60E-05
1.098265,-1.04E-05,1.098265,1.60E-05
1.099059,-4.58E-05,1.099059,1.60E-05
1.099853,-4.01E-05,1.099853,1.62E-05
1.100647,-2.64E-05,1.100647,1.63E-05
1.101441,-2.30E-05,1.101441,1.64E-05
1.102235,-2.25E-05,1.102235,1.64E-05
1.103029,-2.18E-05,1.103029,1.64E-05
1.103824,-2.08E-05,1.103824,1.64E-05
1.104618,-8.39E-06,1.104618,1.64E-05
1.105412,3.69E-06,1.105412,1.64E-05
1.106206,1.19E-05,1.106206,1.64E-05
1.107,2.57E-05,1.107,1.64E-05
1.107794,2.67E-05,1.107794,1.65E-05
1.108588,1.70E-05,1.108588,1.65E-05
1.109382,1.06E-05,1.109382,1.65E-05
1.110176,8.56E-06,1.110176,1.65E-05
1.110971,5.71E-06,1.110971,1.65E-05
1.111765,1.85E-06,1.111765,1.64E-05
1.112559,8.39E-07,1.112559,1.64E-05
1.113353,4.53E-06,1.113353,1.64E-05
1.114147,5.04E-07,1.114147,1.64E-05
1.114941,-1.01E-06,1.114941,1.64E-05
1.115735,-1.68E-07,1.115735,1.64E-05
1.116529,-1.68E-06,1.116529,1.64E-05
1.117324,-2.85E-06,1.117324,1.64E-05
1.118118,6.71E-07,1.118118,1.64E-05
1.118912,-5.04E-07,1.118912,1.64E-05
1.119706,-1.68E-06,1.119706,1.64E-05
1.1205,-1.68E-06,1.1205,1.64E-05
1.121294,-6.21E-06,1.121294,1.62E-05
1.122088,-1.36E-05,1.122088,1.59E-05
1.122882,-1.53E-05,1.122882,1.58E-05
1.123676,-2.60E-05,1.123676,1.58E-05
1.124471,-2.40E-05,1.124471,1.59E-05
1.125265,-1.48E-05,1.125265,1.59E-05
1.126059,-1.06E-05,1.126059,1.59E-05
1.126853,-1.26E-05,1.126853,1.59E-05
1.127647,-1.23E-05,1.127647,1.59E-05
1.128441,-1.11E-05,1.128441,1.59E-05
1.129235,-1.76E-05,1.129235,1.58E-05
1.130029,-2.30E-05,1.130029,1.58E-05
1.130823,-2.37E-05,1.130823,1.59E-05
1.131618,-2.30E-05,1.131618,1.59E-05
1.132412,-1.56E-05,1.132412,1.60E-05
1.133206,-1.29E-05,1.133206,1.60E-05
1.134,-1.39E-05,1.134,1.60E-05
1.134794,-1.16E-05,1.134794,1.60E-05
1.135588,-1.12E-05,1.135588,1.60E-05
1.136382,-1.19E-05,1.136382,1.60E-05
1.137177,-6.21E-06,1.137177,1.60E-05
1.137971,3.19E-06,1.137971,1.60E-05
1.138765,4.53E-06,1.138765,1.60E-05
1.139559,-1.51E-06,1.139559,1.59E-05
1.140353,-1.19E-05,1.140353,1.59E-05
1.141147,-1.43E-05,1.141147,1.59E-05
1.141941,-3.19E-06,1.141941,1.59E-05
1.142735,-4.87E-06,1.142735,1.59E-05
1.143529,-1.51E-05,1.143529,1.59E-05
1.144323,-2.64E-05,1.144323,1.59E-05
1.145118,-2.43E-05,1.145118,1.60E-05
1.145912,-2.10E-05,1.145912,1.61E-05
1.146706,-2.65E-05,1.146706,1.61E-05
1.1475,-2.70E-05,1.1475,1.62E-05
1.148294,-2.17E-05,1.148294,1.62E-05
1.149088,-2.05E-05,1.149088,1.63E-05
1.149882,-1.43E-05,1.149882,1.63E-05
1.150676,-7.22E-06,1.150676,1.63E-05
1.151471,-4.20E-06,1.151471,1.63E-05
1.152265,-4.53E-06,1.152265,1.63E-05
1.153059,-6.04E-06,1.153059,1.63E-05
1.153853,-4.87E-06,1.153853,1.62E-05
1.154647,-6.55E-06,1.154647,1.61E-05
1.155441,-1.34E-05,1.155441,1.60E-05
1.156235,-1.17E-05,1.156235,1.60E-05
1.157029,-4.70E-06,1.157029,1.60E-05
1.157824,-6.71E-07,1.157824,1.60E-05
1.158618,-2.01E-06,1.158618,1.60E-05
1.159412,-3.69E-06,1.159412,1.60E-05
1.160206,-5.87E-06,1.160206,1.60E-05
1.161,-2.01E-06,1.161,1.59E-05
1.161794,8.39E-07,1.161794,1.59E-05
1.162588,7.22E-06,1.162588,1.59E-05
1.163382,1.76E-05,1.163382,1.59E-05
1.164176,1.96E-05,1.164176,1.60E-05
1.164971,9.74E-06,1.164971,1.60E-05
1.165765,3.36E-07,1.165765,1.59E-05
1.166559,5.54E-06,1.166559,1.58E-05
1.167353,1.33E-05,1.167353,1.58E-05
1.168147,2.33E-05,1.168147,1.58E-05
1.168941,2.27E-05,1.168941,1.58E-05
1.169735,8.06E-06,1.169735,1.59E-05
1.170529,2.52E-06,1.170529,1.59E-05
1.171324,-8.22E-06,1.171324,1.58E-05
1.172118,-2.64E-05,1.172118,1.58E-05
1.172912,-5.54E-05,1.172912,1.59E-05
1.173706,-6.50E-05,1.173706,1.62E-05
1.1745,-3.41E-05,1.1745,1.66E-05
1.175294,-2.37E-05,1.175294,1.67E-05
1.176088,-2.22E-05,1.176088,1.67E-05
1.176882,-1.43E-05,1.176882,1.68E-05
1.177676,-1.12E-05,1.177676,1.68E-05
1.178471,-5.04E-06,1.178471,1.68E-05
1.179265,5.54E-06,1.179265,1.68E-05
1.180059,-3.69E-06,1.180059,1.68E-05
1.180853,-3.86E-06,1.180853,1.68E-05
1.181647,1.16E-05,1.181647,1.68E-05
1.182441,1.63E-05,1.182441,1.68E-05
1.183235,3.52E-06,1.183235,1.68E-05
1.184029,-1.28E-05,1.184029,1.68E-05
1.184824,-1.56E-05,1.184824,1.68E-05
1.185618,-6.55E-06,1.185618,1.68E-05
1.186412,5.04E-06,1.186412,1.68E-05
1.187206,1.17E-05,1.187206,1.68E-05
1.188,1.59E-05,1.188,1.68E-05
1.188794,4.36E-06,1.188794,1.68E-05
1.189588,-3.36E-06,1.189588,1.68E-05
1.190382,6.71E-07,1.190382,1.68E-05
1.191176,2.18E-06,1.191176,1.68E-05
1.191971,7.72E-06,1.191971,1.68E-05
1.192765,6.38E-06,1.192765,1.68E-05
1.193559,2.35E-06,1.193559,1.68E-05
1.194353,-5.04E-07,1.194353,1.68E-05
1.195147,7.05E-06,1.195147,1.68E-05
1.195941,9.90E-06,1.195941,1.68E-05
1.196735,-1.51E-06,1.196735,1.68E-05
1.197529,-4.70E-06,1.197529,1.68E-05
1.198323,-1.09E-05,1.198323,1.67E-05
1.199118,-2.43E-05,1.199118,1.67E-05
1.199912,-2.64E-05,1.199912,1.68E-05
1.200706,-2.17E-05,1.200706,1.69E-05
1.2015,-2.23E-05,1.2015,1.69E-05
1.202294,-2.23E-05,1.202294,1.69E-05
1.203088,-1.90E-05,1.203088,1.70E-05
1.203882,-1.23E-05,1.203882,1.70E-05
1.204677,-3.52E-06,1.204677,1.70E-05
1.205471,-1.51E-06,1.205471,1.70E-05
1.206265,-5.04E-06,1.206265,1.68E-05
1.207059,-3.86E-06,1.207059,1.68E-05
1.207853,-5.71E-06,1.207853,1.68E-05
1.208647,-1.23E-05,1.208647,1.68E-05
1.209441,-2.08E-05,1.209441,1.68E-05
1.210235,-2.15E-05,1.210235,1.68E-05
1.211029,-1.73E-05,1.211029,1.69E-05
1.211823,-4.53E-06,1.211823,1.69E-05
1.212618,3.19E-06,1.212618,1.69E-05
1.213412,-3.36E-06,1.213412,1.69E-05
1.214206,-1.58E-05,1.214206,1.69E-05
1.215,-3.26E-05,1.215,1.69E-05
1.215794,-3.47E-05,1.215794,1.70E-05
1.216588,-3.64E-05,1.216588,1.71E-05
1.217382,-3.36E-05,1.217382,1.73E-05
1.218176,-2.64E-05,1.218176,1.74E-05
1.218971,-2.60E-05,1.218971,1.74E-05
1.219765,-2.43E-05,1.219765,1.75E-05
1.220559,-2.57E-05,1.220559,1.75E-05
1.221353,-2.57E-05,1.221353,1.75E-05
1.222147,-2.50E-05,1.222147,1.75E-05
1.222941,-1.76E-05,1.222941,1.75E-05
1.223735,-1.12E-05,1.223735,1.75E-05
1.224529,-1.02E-05,1.224529,1.75E-05
1.225324,-3.19E-06,1.225324,1.74E-05
1.226118,1.17E-06,1.226118,1.74E-05
1.226912,1.01E-06,1.226912,1.74E-05
1.227706,5.20E-06,1.227706,1.73E-05
1.2285,9.23E-06,1.2285,1.73E-05
1.229294,6.04E-06,1.229294,1.73E-05
1.230088,-3.86E-06,1.230088,1.73E-05
1.230882,5.04E-07,1.230882,1.73E-05
1.231676,6.88E-06,1.231676,1.72E-05
1.232471,2.52E-06,1.232471,1.72E-05
1.233265,-8.39E-07,1.233265,1.72E-05
1.234059,4.20E-06,1.234059,1.72E-05
1.234853,-7.05E-06,1.234853,1.72E-05
1.235647,-6.88E-06,1.235647,1.72E-05
1.236441,5.20E-06,1.236441,1.72E-05
1.237235,9.23E-06,1.237235,1.72E-05
1.238029,5.87E-06,1.238029,1.72E-05
1.238824,-3.19E-06,1.238824,1.72E-05
1.239618,5.87E-06,1.239618,1.72E-05
1.240412,1.81E-05,1.240412,1.72E-05
1.241206,1.73E-05,1.241206,1.73E-05
1.242,2.20E-05,1.242,1.73E-05
1.242794,2.57E-05,1.242794,1.73E-05
1.243588,2.64E-05,1.243588,1.73E-05
1.244382,3.37E-05,1.244382,1.73E-05
1.245176,3.68E-05,1.245176,1.74E-05
1.245971,3.52E-05,1.245971,1.75E-05
1.246765,3.17E-05,1.246765,1.76E-05
1.247559,3.16E-05,1.247559,1.77E-05
1.248353,3.32E-05,1.248353,1.78E-05
1.249147,2.30E-05,1.249147,1.79E-05
1.249941,-1.16E-05,1.249941,1.79E-05
1.250735,-3.11E-05,1.250735,1.79E-05
1.251529,-1.36E-05,1.251529,1.80E-05
1.252324,-7.22E-06,1.252324,1.80E-05
1.253118,-1.04E-05,1.253118,1.80E-05
1.253912,-5.87E-06,1.253912,1.80E-05
1.254706,-9.90E-06,1.254706,1.80E-05
1.2555,-1.76E-05,1.2555,1.80E-05
1.256294,-1.70E-05,1.256294,1.81E-05
1.257088,-1.76E-05,1.257088,1.81E-05
1.257882,-2.97E-05,1.257882,1.81E-05
1.258676,-4.45E-05,1.258676,1.82E-05
1.259471,-4.68E-05,1.259471,1.84E-05
1.260265,-3.98E-05,1.260265,1.86E-05
1.261059,-4.28E-05,1.261059,1.87E-05
1.261853,-3.81E-05,1.261853,1.88E-05
1.262647,-2.90E-05,1.262647,1.90E-05
1.263441,-2.45E-05,1.263441,1.90E-05
1.264235,-2.27E-05,1.264235,1.91E-05
1.265029,-2.50E-05,1.265029,1.91E-05
1.265823,-2.47E-05,1.265823,1.91E-05
1.266618,-1.85E-05,1.266618,1.92E-05
1.267412,-2.22E-05,1.267412,1.91E-05
1.268206,-2.50E-05,1.268206,1.89E-05
1.269,-1.76E-05,1.269,1.88E-05
1.269794,-1.54E-05,1.269794,1.87E-05
1.270588,-1.83E-05,1.270588,1.87E-05
1.271382,-1.58E-05,1.271382,1.87E-05
1.272177,-6.21E-06,1.272177,1.87E-05
1.272971,3.69E-06,1.272971,1.87E-05
1.273765,1.24E-05,1.273765,1.87E-05
1.274559,1.46E-05,1.274559,1.86E-05
1.275353,9.06E-06,1.275353,1.86E-05
1.276147,1.51E-06,1.276147,1.86E-05
1.276941,1.85E-06,1.276941,1.86E-05
1.277735,6.38E-06,1.277735,1.85E-05
1.278529,9.57E-06,1.278529,1.85E-05
1.279323,9.23E-06,1.279323,1.85E-05
1.280118,5.71E-06,1.280118,1.85E-05
1.280912,1.68E-07,1.280912,1.85E-05
1.281706,-3.86E-06,1.281706,1.84E-05
1.2825,-9.74E-06,1.2825,1.82E-05
1.283294,-1.98E-05,1.283294,1.80E-05
1.284088,-2.18E-05,1.284088,1.80E-05
1.284882,-1.90E-05,1.284882,1.80E-05
1.285676,-1.49E-05,1.285676,1.80E-05
1.286471,-1.06E-05,1.286471,1.80E-05
1.287265,-9.23E-06,1.287265,1.80E-05
1.288059,-1.36E-05,1.288059,1.80E-05
1.288853,-1.39E-05,1.288853,1.81E-05
1.289647,-1.19E-05,1.289647,1.81E-05
1.290441,-1.28E-05,1.290441,1.81E-05
1.291235,-1.96E-05,1.291235,1.81E-05
1.292029,-2.20E-05,1.292029,1.81E-05
1.292824,-1.58E-05,1.292824,1.81E-05
1.293618,-7.22E-06,1.293618,1.82E-05
1.294412,-4.36E-06,1.294412,1.82E-05
1.295206,1.85E-06,1.295206,1.82E-05
1.296,6.55E-06,1.296,1.82E-05
1.296794,4.20E-06,1.296794,1.82E-05
1.297588,2.52E-06,1.297588,1.81E-05
1.298382,1.85E-06,1.298382,1.81E-05
1.299176,-2.18E-06,1.299176,1.80E-05
1.299971,-7.55E-06,1.299971,1.79E-05
1.300765,-5.71E-06,1.300765,1.79E-05
1.301559,-2.18E-06,1.301559,1.79E-05
1.302353,-1.68E-07,1.302353,1.79E-05
1.303147,1.68E-06,1.303147,1.79E-05
1.303941,3.69E-06,1.303941,1.78E-05
1.304735,-4.53E-06,1.304735,1.76E-05
1.305529,-1.66E-05,1.305529,1.75E-05
1.306324,-1.76E-05,1.306324,1.75E-05
1.307118,-1.96E-05,1.307118,1.74E-05
1.307912,-2.60E-05,1.307912,1.74E-05
1.308706,-2.64E-05,1.308706,1.74E-05
1.3095,-1.63E-05,1.3095,1.75E-05
1.310294,-7.05E-06,1.310294,1.75E-05
1.311088,-3.19E-06,1.311088,1.75E-05
1.311882,-3.86E-06,1.311882,1.75E-05
1.312676,-8.39E-07,1.312676,1.75E-05
1.313471,-4.87E-06,1.313471,1.75E-05
1.314265,-8.56E-06,1.314265,1.75E-05
1.315059,-7.55E-06,1.315059,1.75E-05
1.315853,-7.55E-06,1.315853,1.75E-05
1.316647,-1.29E-05,1.316647,1.75E-05
1.317441,-1.23E-05,1.317441,1.75E-05
1.318235,-8.90E-06,1.318235,1.75E-05
1.319029,-1.63E-05,1.319029,1.75E-05
1.319824,-2.00E-05,1.319824,1.74E-05
1.320618,-1.80E-05,1.320618,1.75E-05
1.321412,-1.09E-05,1.321412,1.75E-05
1.322206,-8.39E-07,1.322206,1.75E-05
1.323,1.17E-06,1.323,1.75E-05
1.323794,-8.39E-07,1.323794,1.75E-05
1.324588,-1.01E-06,1.324588,1.75E-05
1.325382,-8.39E-07,1.325382,1.74E-05
1.326176,-4.36E-06,1.326176,1.73E-05
1.326971,-6.55E-06,1.326971,1.72E-05
1.327765,1.17E-06,1.327765,1.71E-05
1.328559,5.87E-06,1.328559,1.71E-05
1.329353,-1.56E-05,1.329353,1.71E-05
1.330147,-2.84E-05,1.330147,1.71E-05
1.330941,-2.13E-05,1.330941,1.71E-05
1.331735,-2.17E-05,1.331735,1.72E-05
1.332529,-2.06E-05,1.332529,1.72E-05
1.333323,-1.16E-05,1.333323,1.73E-05
1.334118,-4.53E-06,1.334118,1.72E-05
1.334912,-2.52E-06,1.334912,1.72E-05
1.335706,1.85E-06,1.335706,1.71E-05
1.3365,9.74E-06,1.3365,1.71E-05
1.337294,2.10E-05,1.337294,1.71E-05
1.338088,2.72E-05,1.338088,1.71E-05
1.338882,3.27E-05,1.338882,1.72E-05
1.339676,2.92E-05,1.339676,1.73E-05
1.340471,7.22E-06,1.340471,1.74E-05
1.341265,-3.99E-05,1.341265,1.74E-05
1.342059,-5.93E-05,1.342059,1.75E-05
1.342853,-3.81E-05,1.342853,1.77E-05
1.343647,-1.63E-05,1.343647,1.78E-05
1.344441,-5.54E-06,1.344441,1.79E-05
1.345235,4.53E-06,1.345235,1.78E-05
1.346029,6.55E-06,1.346029,1.77E-05
1.346823,-1.68E-07,1.346823,1.77E-05
1.347618,-1.16E-05,1.347618,1.77E-05
1.348412,-1.73E-05,1.348412,1.77E-05
1.349206,-1.78E-05,1.349206,1.76E-05
1.35,-1.80E-05,1.35,1.74E-05
1.350794,-1.46E-05,1.350794,1.74E-05
1.351588,-1.26E-05,1.351588,1.74E-05
1.352382,-2.20E-05,1.352382,1.74E-05
1.353176,-2.65E-05,1.353176,1.74E-05
1.353971,-2.20E-05,1.353971,1.74E-05
1.354765,-1.93E-05,1.354765,1.74E-05
1.355559,-1.36E-05,1.355559,1.74E-05
1.356353,-5.54E-06,1.356353,1.75E-05
1.357147,1.17E-06,1.357147,1.74E-05
1.357941,6.55E-06,1.357941,1.73E-05
1.358735,1.06E-05,1.358735,1.73E-05
1.359529,9.90E-06,1.359529,1.73E-05
1.360324,1.01E-05,1.360324,1.73E-05
1.361118,9.74E-06,1.361118,1.73E-05
1.361912,1.68E-06,1.361912,1.73E-05
1.362706,-7.05E-06,1.362706,1.73E-05
1.3635,-2.35E-06,1.3635,1.73E-05
1.364294,9.90E-06,1.364294,1.73E-05
1.365088,1.36E-05,1.365088,1.73E-05
1.365882,1.68E-06,1.365882,1.74E-05
1.366676,-6.04E-06,1.366676,1.74E-05
1.367471,-6.88E-06,1.367471,1.74E-05
1.368265,-8.90E-06,1.368265,1.74E-05
1.369059,-8.22E-06,1.369059,1.74E-05
1.369853,-1.06E-05,1.369853,1.74E-05
1.370647,-1.33E-05,1.370647,1.74E-05
1.371441,-1.39E-05,1.371441,1.74E-05
1.372235,-1.06E-05,1.372235,1.74E-05
1.373029,-5.54E-06,1.373029,1.74E-05
1.373824,-4.70E-06,1.373824,1.73E-05
1.374618,-3.52E-06,1.374618,1.73E-05
1.375412,-4.87E-06,1.375412,1.73E-05
1.376206,-5.20E-06,1.376206,1.72E-05
1.377,3.02E-06,1.377,1.72E-05
1.377794,1.02E-05,1.377794,1.72E-05
1.378588,9.23E-06,1.378588,1.72E-05
1.379382,9.06E-06,1.379382,1.72E-05
1.380176,1.53E-05,1.380176,1.72E-05
1.380971,1.12E-05,1.380971,1.71E-05
1.381765,1.51E-06,1.381765,1.71E-05
1.382559,6.71E-07,1.382559,1.71E-05
1.383353,1.01E-06,1.383353,1.71E-05
1.384147,-4.87E-06,1.384147,1.70E-05
1.384941,-5.71E-06,1.384941,1.70E-05
1.385735,-6.21E-06,1.385735,1.70E-05
1.386529,-2.18E-06,1.386529,1.70E-05
1.387323,1.68E-06,1.387323,1.70E-05
1.388118,7.89E-06,1.388118,1.70E-05
1.388912,7.89E-06,1.388912,1.70E-05
1.389706,4.20E-06,1.389706,1.70E-05
1.3905,6.21E-06,1.3905,1.70E-05
1.391294,2.52E-06,1.391294,1.70E-05
1.392088,2.52E-06,1.392088,1.70E-05
1.392882,6.88E-06,1.392882,1.70E-05
1.393676,-3.69E-06,1.393676,1.70E-05
1.394471,-1.83E-05,1.394471,1.69E-05
1.395265,-2.11E-05,1.395265,1.69E-05
1.396059,-2.25E-05,1.396059,1.69E-05
1.396853,-2.10E-05,1.396853,1.69E-05
1.397647,-1.51E-05,1.397647,1.68E-05
1.398441,-1.43E-05,1.398441,1.68E-05
1.399235,-1.49E-05,1.399235,1.68E-05
1.400029,-7.22E-06,1.400029,1.68E-05
1.400823,-5.71E-06,1.400823,1.68E-05
1.401618,-1.43E-05,1.401618,1.68E-05
1.402412,-1.76E-05,1.402412,1.68E-05
1.403206,-1.96E-05,1.403206,1.68E-05
1.404,-1.90E-05,1.404,1.69E-05
1.404794,-2.25E-05,1.404794,1.69E-05
1.405588,-2.92E-05,1.405588,1.69E-05
1.406382,-3.88E-05,1.406382,1.70E-05
1.407176,-3.59E-05,1.407176,1.71E-05
1.407971,-1.49E-05,1.407971,1.73E-05
1.408765,-1.23E-05,1.408765,1.73E-05
1.409559,-1.31E-05,1.409559,1.73E-05
1.410353,-9.57E-06,1.410353,1.73E-05
1.411147,-7.22E-06,1.411147,1.73E-05
1.411941,-3.52E-06,1.411941,1.73E-05
1.412735,-4.03E-06,1.412735,1.73E-05
1.413529,-3.19E-06,1.413529,1.73E-05
1.414324,-1.68E-07,1.414324,1.72E-05
1.415118,-3.52E-06,1.415118,1.72E-05
1.415912,-9.57E-06,1.415912,1.72E-05
1.416706,-1.36E-05,1.416706,1.72E-05
1.4175,-1.70E-05,1.4175,1.72E-05
1.418294,-1.66E-05,1.418294,1.72E-05
1.419088,-1.48E-05,1.419088,1.72E-05
1.419882,-2.08E-05,1.419882,1.72E-05
1.420676,-2.75E-05,1.420676,1.73E-05
1.421471,-2.40E-05,1.421471,1.73E-05
1.422265,-1.56E-05,1.422265,1.73E-05
1.423059,-1.43E-05,1.423059,1.70E-05
1.423853,-1.23E-05,1.423853,1.67E-05
1.424647,-3.52E-06,1.424647,1.66E-05
1.425441,-5.37E-06,1.425441,1.65E-05
1.426235,-2.52E-05,1.426235,1.65E-05
1.427029,-4.31E-05,1.427029,1.65E-05
1.427824,-3.34E-05,1.427824,1.67E-05
1.428618,-1.53E-05,1.428618,1.68E-05
1.429412,-5.71E-06,1.429412,1.68E-05
1.430206,3.86E-06,1.430206,1.68E-05
1.431,1.53E-05,1.431,1.68E-05
1.431794,2.94E-05,1.431794,1.68E-05
1.432588,3.61E-05,1.432588,1.69E-05
1.433382,2.60E-05,1.433382,1.70E-05
1.434176,3.19E-06,1.434176,1.70E-05
1.434971,-2.13E-05,1.434971,1.70E-05
1.435765,-1.53E-05,1.435765,1.71E-05
1.436559,3.69E-06,1.436559,1.71E-05
1.437353,3.69E-06,1.437353,1.71E-05
1.438147,-1.51E-06,1.438147,1.70E-05
1.438941,-4.20E-06,1.438941,1.70E-05
1.439735,-2.52E-06,1.439735,1.70E-05
1.440529,1.46E-05,1.440529,1.70E-05
1.441324,1.78E-05,1.441324,1.71E-05
1.442118,-1.17E-06,1.442118,1.71E-05
1.442912,-1.71E-05,1.442912,1.71E-05
1.443706,-1.14E-05,1.443706,1.71E-05
1.4445,-6.71E-06,1.4445,1.71E-05
1.445294,-1.14E-05,1.445294,1.71E-05
1.446088,-1.49E-05,1.446088,1.71E-05
1.446882,-1.43E-05,1.446882,1.71E-05
1.447676,-1.23E-05,1.447676,1.72E-05
1.448471,-5.54E-06,1.448471,1.72E-05
1.449265,-6.21E-06,1.449265,1.71E-05
1.450059,-5.54E-06,1.450059,1.70E-05
1.450853,-5.04E-07,1.450853,1.70E-05
1.451647,-8.22E-06,1.451647,1.70E-05
1.452441,-1.51E-05,1.452441,1.69E-05
1.453235,-2.11E-05,1.453235,1.69E-05
1.454029,-2.50E-05,1.454029,1.69E-05
1.454823,-1.70E-05,1.454823,1.70E-05
1.455618,-1.09E-05,1.455618,1.70E-05
1.456412,-4.03E-06,1.456412,1.70E-05
1.457206,5.04E-07,1.457206,1.70E-05
1.458,8.39E-07,1.458,1.70E-05
1.458794,-1.06E-05,1.458794,1.70E-05
1.459588,-1.49E-05,1.459588,1.70E-05
1.460382,-1.16E-05,1.460382,1.70E-05
1.461176,-1.17E-05,1.461176,1.69E-05
1.461971,-5.71E-06,1.461971,1.70E-05
1.462765,-6.71E-07,1.462765,1.70E-05
1.463559,5.87E-06,1.463559,1.70E-05
1.464353,1.33E-05,1.464353,1.69E-05
1.465147,1.76E-05,1.465147,1.69E-05
1.465941,1.61E-05,1.465941,1.68E-05
1.466735,1.78E-05,1.466735,1.67E-05
1.467529,1.16E-05,1.467529,1.66E-05
1.468323,-4.87E-06,1.468323,1.65E-05
1.469118,-2.17E-05,1.469118,1.65E-05
1.469912,-3.24E-05,1.469912,1.65E-05
1.470706,-3.51E-05,1.470706,1.65E-05
1.4715,-2.77E-05,1.4715,1.66E-05
1.472294,-1.63E-05,1.472294,1.66E-05
1.473088,-1.38E-05,1.473088,1.66E-05
1.473882,-1.02E-05,1.473882,1.66E-05
1.474676,-1.06E-05,1.474676,1.66E-05
1.475471,-1.56E-05,1.475471,1.66E-05
1.476265,-1.16E-05,1.476265,1.66E-05
1.477059,-9.06E-06,1.477059,1.66E-05
1.477853,-7.22E-06,1.477853,1.66E-05
1.478647,-3.86E-06,1.478647,1.66E-05
1.479441,-2.01E-06,1.479441,1.66E-05
1.480235,3.86E-06,1.480235,1.66E-05
1.481029,6.88E-06,1.481029,1.66E-05
1.481824,1.85E-06,1.481824,1.66E-05
1.482618,-4.20E-06,1.482618,1.66E-05
1.483412,5.04E-07,1.483412,1.66E-05
1.484206,4.20E-06,1.484206,1.66E-05
1.485,1.24E-05,1.485,1.66E-05
1.485794,1.51E-05,1.485794,1.66E-05
1.486588,1.39E-05,1.486588,1.66E-05
1.487382,1.16E-05,1.487382,1.67E-05
1.488176,8.39E-06,1.488176,1.67E-05
1.488971,-4.36E-06,1.488971,1.67E-05
1.489765,-1.51E-05,1.489765,1.67E-05
1.490559,-3.99E-05,1.490559,1.67E-05
1.491353,-3.21E-05,1.491353,1.68E-05
1.492147,-1.19E-05,1.492147,1.68E-05
1.492941,-9.90E-06,1.492941,1.68E-05
1.493735,-9.57E-06,1.493735,1.67E-05
1.494529,-9.74E-06,1.494529,1.66E-05
1.495324,-4.70E-06,1.495324,1.65E-05
1.496118,-4.53E-06,1.496118,1.64E-05
1.496912,-1.23E-05,1.496912,1.63E-05
1.497706,-1.93E-05,1.497706,1.62E-05
1.4985,-2.22E-05,1.4985,1.61E-05
1.499294,-1.63E-05,1.499294,1.61E-05
1.500088,-2.52E-06,1.500088,1.61E-05
1.500882,6.21E-06,1.500882,1.60E-05
1.501676,7.89E-06,1.501676,1.60E-05
1.502471,1.19E-05,1.502471,1.60E-05
1.503265,1.80E-05,1.503265,1.60E-05
1.504059,2.03E-05,1.504059,1.61E-05
1.504853,2.01E-05,1.504853,1.61E-05
1.505647,9.90E-06,1.505647,1.61E-05
1.506441,-9.06E-06,1.506441,1.61E-05
1.507235,-2.80E-05,1.507235,1.61E-05
1.508029,-1.98E-05,1.508029,1.61E-05
1.508824,-3.69E-06,1.508824,1.59E-05
1.509618,6.55E-06,1.509618,1.57E-05
1.510412,6.55E-06,1.510412,1.55E-05
1.511206,-8.39E-07,1.511206,1.53E-05
1.512,1.85E-06,1.512,1.52E-05
1.512794,1.66E-05,1.512794,1.51E-05
1.513588,1.78E-05,1.513588,1.51E-05
1.514382,1.33E-05,1.514382,1.50E-05
1.515176,5.71E-06,1.515176,1.50E-05
1.515971,-8.90E-06,1.515971,1.49E-05
1.516765,-2.10E-05,1.516765,1.49E-05
1.517559,-5.07E-05,1.517559,1.49E-05
1.518353,-6.63E-05,1.518353,1.51E-05
1.519147,-4.38E-05,1.519147,1.55E-05
1.519941,-2.64E-05,1.519941,1.57E-05
1.520735,-2.06E-05,1.520735,1.57E-05
1.521529,-2.64E-05,1.521529,1.58E-05
1.522323,-3.31E-05,1.522323,1.58E-05
1.523118,-3.17E-05,1.523118,1.59E-05
1.523912,-2.13E-05,1.523912,1.60E-05
1.524706,-1.16E-05,1.524706,1.60E-05
1.5255,-5.87E-06,1.5255,1.60E-05
1.526294,-4.87E-06,1.526294,1.60E-05
1.527088,-8.90E-06,1.527088,1.61E-05
1.527882,-6.88E-06,1.527882,1.61E-05
1.528676,-5.54E-06,1.528676,1.60E-05
1.529471,-4.20E-06,1.529471,1.60E-05
1.530265,-2.35E-06,1.530265,1.60E-05
1.531059,-3.19E-06,1.531059,1.60E-05
1.531853,-8.90E-06,1.531853,1.60E-05
1.532647,-1.76E-05,1.532647,1.60E-05
1.533441,-1.09E-05,1.533441,1.60E-05
1.534235,-9.23E-06,1.534235,1.60E-05
1.535029,-1.31E-05,1.535029,1.60E-05
1.535823,-1.76E-05,1.535823,1.60E-05
1.536618,-1.96E-05,1.536618,1.60E-05
1.537412,-1.80E-05,1.537412,1.60E-05
1.538206,-1.09E-05,1.538206,1.60E-05
1.539,-5.04E-06,1.539,1.60E-05
1.539794,-5.20E-06,1.539794,1.60E-05
1.540588,-5.04E-06,1.540588,1.60E-05
1.541382,-5.71E-06,1.541382,1.60E-05
1.542176,-1.26E-05,1.542176,1.59E-05
1.542971,-1.09E-05,1.542971,1.59E-05
1.543765,-6.21E-06,1.543765,1.59E-05
1.544559,-1.26E-05,1.544559,1.59E-05
1.545353,-1.29E-05,1.545353,1.59E-05
1.546147,-5.37E-06,1.546147,1.59E-05
1.546941,-3.36E-06,1.546941,1.59E-05
1.547735,-9.57E-06,1.547735,1.59E-05
1.548529,-6.38E-06,1.548529,1.60E-05
1.549324,-5.71E-06,1.549324,1.60E-05
1.550118,-4.53E-06,1.550118,1.60E-05
1.550912,-6.21E-06,1.550912,1.60E-05
1.551706,-8.22E-06,1.551706,1.60E-05
1.5525,-7.22E-06,1.5525,1.60E-05
1.553294,-1.29E-05,1.553294,1.60E-05
1.554088,-1.51E-05,1.554088,1.60E-05
1.554882,-1.31E-05,1.554882,1.60E-05
1.555676,-8.56E-06,1.555676,1.60E-05
1.556471,-3.52E-06,1.556471,1.60E-05
1.557265,8.39E-07,1.557265,1.59E-05
1.558059,3.19E-06,1.558059,1.59E-05
1.558853,3.86E-06,1.558853,1.58E-05
1.559647,5.54E-06,1.559647,1.58E-05
1.560441,8.56E-06,1.560441,1.58E-05
1.561235,8.56E-06,1.561235,1.58E-05
1.562029,-2.85E-06,1.562029,1.58E-05
1.562824,-3.19E-06,1.562824,1.58E-05
1.563618,6.55E-06,1.563618,1.58E-05
1.564412,8.90E-06,1.564412,1.58E-05
1.565206,3.19E-06,1.565206,1.58E-05
1.566,8.90E-06,1.566,1.58E-05
1.566794,8.56E-06,1.566794,1.58E-05
1.567588,1.85E-06,1.567588,1.58E-05
1.568382,-1.68E-06,1.568382,1.58E-05
1.569176,-1.68E-06,1.569176,1.57E-05
1.569971,-7.55E-06,1.569971,1.57E-05
1.570765,-2.06E-05,1.570765,1.57E-05
1.571559,-2.94E-05,1.571559,1.57E-05
1.572353,-3.61E-05,1.572353,1.58E-05
1.573147,-3.64E-05,1.573147,1.59E-05
1.573941,-2.87E-05,1.573941,1.60E-05
1.574735,-1.78E-05,1.574735,1.61E-05
1.575529,-2.03E-05,1.575529,1.62E-05
1.576324,-1.11E-05,1.576324,1.62E-05
1.577118,2.52E-06,1.577118,1.62E-05
1.577912,1.59E-05,1.577912,1.62E-05
1.578706,2.48E-05,1.578706,1.62E-05
1.5795,6.21E-06,1.5795,1.63E-05
1.580294,-1.16E-05,1.580294,1.62E-05
1.581088,-2.40E-05,1.581088,1.61E-05
1.581882,-1.80E-05,1.581882,1.62E-05
1.582676,-5.87E-06,1.582676,1.62E-05
1.583471,-3.36E-06,1.583471,1.61E-05
1.584265,-8.39E-07,1.584265,1.61E-05
1.585059,1.68E-06,1.585059,1.61E-05
1.585853,5.04E-07,1.585853,1.61E-05
1.586647,-4.53E-06,1.586647,1.61E-05
1.587441,-2.52E-06,1.587441,1.61E-05
1.588235,3.52E-06,1.588235,1.60E-05
1.589029,-2.35E-06,1.589029,1.59E-05
1.589823,-5.54E-06,1.589823,1.58E-05
1.590618,-9.90E-06,1.590618,1.58E-05
1.591412,-1.59E-05,1.591412,1.57E-05
1.592206,-1.80E-05,1.592206,1.53E-05
1.593,-1.46E-05,1.593,1.52E-05
1.593794,-1.49E-05,1.593794,1.52E-05
1.594588,-9.57E-06,1.594588,1.52E-05
1.595382,-1.17E-06,1.595382,1.52E-05
1.596177,5.20E-06,1.596177,1.52E-05
1.596971,8.90E-06,1.596971,1.52E-05
1.597765,9.74E-06,1.597765,1.52E-05
1.598559,-3.86E-06,1.598559,1.52E-05
1.599353,-2.43E-05,1.599353,1.52E-05
1.600147,-6.21E-06,1.600147,1.52E-05
1.600941,1.31E-05,1.600941,1.52E-05
1.601735,1.26E-05,1.601735,1.52E-05
1.602529,1.43E-05,1.602529,1.52E-05
1.603323,9.90E-06,1.603323,1.51E-05
1.604118,5.87E-06,1.604118,1.51E-05
1.604912,-1.85E-06,1.604912,1.50E-05
1.605706,-1.85E-06,1.605706,1.50E-05
1.6065,-7.22E-06,1.6065,1.50E-05
1.607294,-1.83E-05,1.607294,1.50E-05
1.608088,-1.83E-05,1.608088,1.50E-05
1.608882,-8.90E-06,1.608882,1.51E-05
1.609676,-1.85E-06,1.609676,1.51E-05
1.610471,8.39E-07,1.610471,1.51E-05
1.611265,6.71E-07,1.611265,1.50E-05
1.612059,1.17E-06,1.612059,1.50E-05
1.612853,1.17E-06,1.612853,1.50E-05
1.613647,-1.51E-06,1.613647,1.50E-05
1.614441,-4.20E-06,1.614441,1.50E-05
1.615235,-2.85E-06,1.615235,1.50E-05
1.616029,-1.85E-06,1.616029,1.50E-05
1.616824,-6.38E-06,1.616824,1.50E-05
1.617618,-4.53E-06,1.617618,1.50E-05
1.618412,8.39E-07,1.618412,1.50E-05
1.619206,-6.21E-06,1.619206,1.50E-05
1.62,-1.63E-05,1.62,1.50E-05
1.620794,-2.23E-05,1.620794,1.50E-05
1.621588,-1.95E-05,1.621588,1.50E-05
1.622382,-1.58E-05,1.622382,1.51E-05
1.623176,-1.64E-05,1.623176,1.51E-05
1.623971,-1.66E-05,1.623971,1.51E-05
1.624765,-1.49E-05,1.624765,1.51E-05
1.625559,-1.33E-05,1.625559,1.52E-05
1.626353,-1.09E-05,1.626353,1.52E-05
1.627147,-8.22E-06,1.627147,1.52E-05
1.627941,-4.20E-06,1.627941,1.52E-05
1.628735,3.69E-06,1.628735,1.52E-05
1.629529,1.06E-05,1.629529,1.52E-05
1.630324,5.87E-06,1.630324,1.52E-05
1.631118,-4.03E-06,1.631118,1.51E-05
1.631912,-5.54E-06,1.631912,1.51E-05
1.632706,-1.85E-05,1.632706,1.51E-05
1.6335,-3.05E-05,1.6335,1.52E-05
1.634294,-2.90E-05,1.634294,1.53E-05
1.635088,-2.17E-05,1.635088,1.54E-05
1.635882,-1.91E-05,1.635882,1.54E-05
1.636676,-1.56E-05,1.636676,1.54E-05
1.637471,-1.02E-05,1.637471,1.55E-05
1.638265,-3.86E-06,1.638265,1.55E-05
1.639059,1.17E-06,1.639059,1.55E-05
1.639853,-5.04E-07,1.639853,1.55E-05
1.640647,-1.51E-06,1.640647,1.55E-05
1.641441,-4.36E-06,1.641441,1.55E-05
1.642235,-1.06E-05,1.642235,1.55E-05
1.643029,-2.06E-05,1.643029,1.55E-05
1.643824,-1.86E-05,1.643824,1.55E-05
1.644618,-1.39E-05,1.644618,1.55E-05
1.645412,-1.29E-05,1.645412,1.55E-05
1.646206,-1.11E-05,1.646206,1.55E-05
1.647,-3.19E-06,1.647,1.54E-05
1.647794,1.17E-06,1.647794,1.54E-05
1.648588,-4.20E-06,1.648588,1.54E-05
1.649382,-1.49E-05,1.649382,1.54E-05
1.650176,-2.37E-05,1.650176,1.54E-05
1.650971,-2.20E-05,1.650971,1.54E-05
1.651765,-1.73E-05,1.651765,1.55E-05
1.652559,-2.03E-05,1.652559,1.55E-05
1.653353,-1.64E-05,1.653353,1.55E-05
1.654147,-3.52E-06,1.654147,1.54E-05
1.654941,4.87E-06,1.654941,1.54E-05
1.655735,-2.18E-06,1.655735,1.53E-05
1.656529,-7.39E-06,1.656529,1.52E-05
1.657323,-2.52E-06,1.657323,1.50E-05
1.658118,8.90E-06,1.658118,1.50E-05
1.658912,1.16E-05,1.658912,1.50E-05
1.659706,7.89E-06,1.659706,1.50E-05
1.6605,4.20E-06,1.6605,1.50E-05
1.661294,-4.20E-06,1.661294,1.50E-05
1.662088,-4.87E-06,1.662088,1.50E-05
1.662882,4.36E-06,1.662882,1.50E-05
1.663677,8.56E-06,1.663677,1.50E-05
1.664471,7.55E-06,1.664471,1.50E-05
1.665265,2.18E-06,1.665265,1.50E-05
1.666059,-2.85E-06,1.666059,1.50E-05
1.666853,1.85E-06,1.666853,1.50E-05
1.667647,8.39E-06,1.667647,1.49E-05
1.668441,9.06E-06,1.668441,1.49E-05
1.669235,8.56E-06,1.669235,1.49E-05
1.670029,8.39E-07,1.670029,1.49E-05
1.670823,-1.33E-05,1.670823,1.48E-05
1.671618,-3.00E-05,1.671618,1.47E-05
1.672412,-2.27E-05,1.672412,1.48E-05
1.673206,-1.28E-05,1.673206,1.48E-05
1.674,-1.44E-05,1.674,1.48E-05
1.674794,-1.49E-05,1.674794,1.49E-05
1.675588,-2.27E-05,1.675588,1.49E-05
1.676382,-3.27E-05,1.676382,1.49E-05
1.677176,-4.92E-05,1.677176,1.48E-05
1.677971,-4.92E-05,1.677971,1.49E-05
1.678765,-3.71E-05,1.678765,1.52E-05
1.679559,-2.37E-05,1.679559,1.53E-05
1.680353,-1.83E-05,1.680353,1.54E-05
1.681147,-1.96E-05,1.681147,1.54E-05
1.681941,-2.20E-05,1.681941,1.53E-05
1.682735,-2.23E-05,1.682735,1.52E-05
1.683529,-2.60E-05,1.683529,1.52E-05
1.684324,-2.74E-05,1.684324,1.53E-05
1.685118,-1.70E-05,1.685118,1.53E-05
1.685912,-2.18E-06,1.685912,1.53E-05
1.686706,8.39E-06,1.686706,1.53E-05
1.6875,7.89E-06,1.6875,1.53E-05
1.688294,1.34E-05,1.688294,1.53E-05
1.689088,1.71E-05,1.689088,1.53E-05
1.689882,1.63E-05,1.689882,1.54E-05
1.690676,1.53E-05,1.690676,1.54E-05
1.691471,1.56E-05,1.691471,1.54E-05
1.692265,1.23E-05,1.692265,1.54E-05
1.693059,-3.36E-07,1.693059,1.54E-05
1.693853,-1.38E-05,1.693853,1.54E-05
1.694647,-2.74E-05,1.694647,1.54E-05
1.695441,-2.00E-05,1.695441,1.54E-05
1.696235,6.55E-06,1.696235,1.55E-05
1.697029,1.64E-05,1.697029,1.55E-05
1.697824,2.23E-05,1.697824,1.55E-05
1.698618,2.75E-05,1.698618,1.55E-05
1.699412,2.37E-05,1.699412,1.56E-05
1.700206,3.02E-06,1.700206,1.56E-05
1.701,-2.25E-05,1.701,1.56E-05
1.701794,-1.19E-05,1.701794,1.57E-05
1.702588,2.35E-06,1.702588,1.57E-05
1.703382,-5.04E-07,1.703382,1.56E-05
1.704176,1.17E-06,1.704176,1.56E-05
1.704971,1.85E-06,1.704971,1.55E-05
1.705765,1.01E-06,1.705765,1.55E-05
1.706559,1.17E-06,1.706559,1.55E-05
1.707353,2.18E-06,1.707353,1.55E-05
1.708147,-4.70E-06,1.708147,1.55E-05
1.708941,-8.56E-06,1.708941,1.55E-05
1.709735,-8.22E-06,1.709735,1.55E-05
1.710529,-2.85E-06,1.710529,1.55E-05
1.711323,-2.01E-06,1.711323,1.55E-05
1.712118,-3.02E-06,1.712118,1.55E-05
1.712912,-3.19E-06,1.712912,1.55E-05
1.713706,-7.55E-06,1.713706,1.55E-05
1.7145,-1.02E-05,1.7145,1.55E-05
1.715294,-1.12E-05,1.715294,1.54E-05
1.716088,-1.11E-05,1.716088,1.54E-05
1.716882,-9.57E-06,1.716882,1.54E-05
1.717676,-7.22E-06,1.717676,1.54E-05
1.718471,-2.85E-06,1.718471,1.54E-05
1.719265,-5.04E-07,1.719265,1.54E-05
1.720059,-4.87E-06,1.720059,1.53E-05
1.720853,-1.06E-05,1.720853,1.51E-05
1.721647,-1.53E-05,1.721647,1.51E-05
1.722441,-1.85E-05,1.722441,1.51E-05
1.723235,-8.39E-06,1.723235,1.51E-05
1.724029,-2.18E-06,1.724029,1.51E-05
1.724823,-3.02E-06,1.724823,1.51E-05
1.725618,1.17E-06,1.725618,1.50E-05
1.726412,2.52E-06,1.726412,1.50E-05
1.727206,-1.17E-06,1.727206,1.50E-05
1.728,-8.39E-07,1.728,1.50E-05
1.728794,-4.20E-06,1.728794,1.50E-05
1.729588,-7.05E-06,1.729588,1.50E-05
1.730382,-1.24E-05,1.730382,1.50E-05
1.731176,-2.64E-05,1.731176,1.50E-05
1.731971,-3.24E-05,1.731971,1.51E-05
1.732765,-2.74E-05,1.732765,1.52E-05
1.733559,-2.57E-05,1.733559,1.53E-05
1.734353,-2.08E-05,1.734353,1.53E-05
1.735147,-1.63E-05,1.735147,1.54E-05
1.735941,-9.57E-06,1.735941,1.54E-05
1.736735,-3.02E-06,1.736735,1.54E-05
1.737529,-6.55E-06,1.737529,1.54E-05
1.738323,-1.43E-05,1.738323,1.53E-05
1.739118,-1.28E-05,1.739118,1.54E-05
1.739912,-1.96E-05,1.739912,1.54E-05
1.740706,-1.44E-05,1.740706,1.52E-05
1.7415,-1.43E-05,1.7415,1.51E-05
1.742294,-1.51E-05,1.742294,1.52E-05
1.743088,-6.88E-06,1.743088,1.52E-05
1.743882,-7.05E-06,1.743882,1.52E-05
1.744676,-1.49E-05,1.744676,1.52E-05
1.745471,-1.06E-05,1.745471,1.52E-05
1.746265,-1.85E-06,1.746265,1.52E-05
1.747059,8.39E-07,1.747059,1.52E-05
1.747853,-1.68E-06,1.747853,1.51E-05
1.748647,-7.22E-06,1.748647,1.51E-05
1.749441,-3.19E-06,1.749441,1.51E-05
1.750235,3.19E-06,1.750235,1.51E-05
1.751029,-3.36E-07,1.751029,1.51E-05
1.751824,-6.38E-06,1.751824,1.51E-05
1.752618,-4.36E-06,1.752618,1.50E-05
1.753412,-2.85E-06,1.753412,1.50E-05
1.754206,1.17E-06,1.754206,1.50E-05
1.755,3.86E-06,1.755,1.49E-05
1.755794,5.04E-06,1.755794,1.49E-05
1.756588,-1.68E-07,1.756588,1.49E-05
1.757382,3.36E-07,1.757382,1.48E-05
1.758176,3.36E-07,1.758176,1.48E-05
1.758971,-1.68E-07,1.758971,1.48E-05
1.759765,-1.68E-07,1.759765,1.48E-05
1.760559,-7.89E-06,1.760559,1.48E-05
1.761353,-1.46E-05,1.761353,1.48E-05
1.762147,-5.54E-06,1.762147,1.48E-05
1.762941,-3.52E-06,1.762941,1.48E-05
1.763735,0,1.763735,1.47E-05
1.764529,1.01E-06,1.764529,1.47E-05
1.765324,-7.22E-06,1.765324,1.47E-05
1.766118,-2.30E-05,1.766118,1.47E-05
1.766912,-2.94E-05,1.766912,1.47E-05
1.767706,-3.37E-05,1.767706,1.45E-05
1.7685,-2.99E-05,1.7685,1.42E-05
1.769294,-3.71E-05,1.769294,1.41E-05
1.770088,-3.91E-05,1.770088,1.41E-05
1.770882,-1.49E-05,1.770882,1.43E-05
1.771676,-8.90E-06,1.771676,1.42E-05
1.772471,-1.16E-05,1.772471,1.41E-05
1.773265,-3.52E-06,1.773265,1.40E-05
1.774059,3.86E-06,1.774059,1.39E-05
1.774853,9.90E-06,1.774853,1.39E-05
1.775647,1.33E-05,1.775647,1.39E-05
1.776441,7.89E-06,1.776441,1.40E-05
1.777235,-1.01E-06,1.777235,1.40E-05
1.778029,8.39E-07,1.778029,1.40E-05
1.778823,-2.52E-06,1.778823,1.39E-05
1.779618,-5.87E-06,1.779618,1.39E-05
1.780412,-2.69E-06,1.780412,1.39E-05
1.781206,2.52E-06,1.781206,1.39E-05
1.782,4.53E-06,1.782,1.39E-05
1.782794,6.55E-06,1.782794,1.39E-05
1.783588,6.38E-06,1.783588,1.39E-05
1.784382,6.55E-06,1.784382,1.39E-05
1.785176,4.53E-06,1.785176,1.39E-05
1.785971,-5.37E-06,1.785971,1.38E-05
1.786765,-1.85E-06,1.786765,1.38E-05
1.787559,-3.52E-06,1.787559,1.38E-05
1.788353,-1.11E-05,1.788353,1.38E-05
1.789147,-1.02E-05,1.789147,1.38E-05
1.789941,-1.12E-05,1.789941,1.38E-05
1.790735,-1.19E-05,1.790735,1.38E-05
1.791529,-1.56E-05,1.791529,1.38E-05
1.792323,-1.76E-05,1.792323,1.38E-05
1.793118,-1.09E-05,1.793118,1.38E-05
1.793912,-1.56E-05,1.793912,1.38E-05
1.794706,-2.67E-05,1.794706,1.39E-05
1.7955,-2.94E-05,1.7955,1.39E-05
1.796294,-2.60E-05,1.796294,1.40E-05
1.797088,-1.73E-05,1.797088,1.41E-05
1.797882,-3.19E-06,1.797882,1.41E-05
1.798676,-2.01E-06,1.798676,1.41E-05
1.799471,-1.17E-06,1.799471,1.41E-05
1.800265,-1.51E-06,1.800265,1.41E-05
1.801059,-1.12E-05,1.801059,1.41E-05
1.801853,-3.98E-05,1.801853,1.41E-05
1.802647,-2.60E-05,1.802647,1.43E-05
1.803441,-8.39E-07,1.803441,1.43E-05
1.804235,8.39E-07,1.804235,1.43E-05
1.805029,1.17E-06,1.805029,1.43E-05
1.805823,-5.87E-06,1.805823,1.43E-05
1.806618,-1.24E-05,1.806618,1.43E-05
1.807412,-6.21E-06,1.807412,1.43E-05
1.808206,-1.01E-06,1.808206,1.43E-05
1.809,1.85E-06,1.809,1.43E-05
1.809794,5.04E-07,1.809794,1.43E-05
1.810588,-4.36E-06,1.810588,1.43E-05
1.811382,-8.22E-06,1.811382,1.43E-05
1.812176,-1.41E-05,1.812176,1.43E-05
1.812971,-1.29E-05,1.812971,1.43E-05
1.813765,-7.05E-06,1.813765,1.43E-05
1.814559,-2.18E-06,1.814559,1.43E-05
1.815353,1.68E-07,1.815353,1.43E-05
1.816147,-2.18E-06,1.816147,1.43E-05
1.816941,-4.70E-06,1.816941,1.43E-05
1.817735,-1.07E-05,1.817735,1.43E-05
1.818529,-5.20E-06,1.818529,1.43E-05
1.819324,6.21E-06,1.819324,1.43E-05
1.820118,1.23E-05,1.820118,1.43E-05
1.820912,1.49E-05,1.820912,1.43E-05
1.821706,1.51E-05,1.821706,1.42E-05
1.8225,1.41E-05,1.8225,1.41E-05
1.823294,8.56E-06,1.823294,1.40E-05
1.824088,6.38E-06,1.824088,1.39E-05
1.824882,7.22E-06,1.824882,1.38E-05
1.825676,5.20E-06,1.825676,1.38E-05
1.826471,-4.87E-06,1.826471,1.38E-05
1.827265,-1.02E-05,1.827265,1.38E-05
1.828059,-1.19E-05,1.828059,1.38E-05
1.828853,-1.63E-05,1.828853,1.37E-05
1.829647,-1.83E-05,1.829647,1.38E-05
1.830441,-1.29E-05,1.830441,1.38E-05
1.831235,-7.55E-06,1.831235,1.37E-05
1.832029,-8.22E-06,1.832029,1.37E-05
1.832824,-1.53E-05,1.832824,1.37E-05
1.833618,-1.56E-05,1.833618,1.37E-05
1.834412,-1.12E-05,1.834412,1.38E-05
1.835206,-8.56E-06,1.835206,1.38E-05
1.836,3.36E-07,1.836,1.38E-05
1.836794,7.55E-06,1.836794,1.38E-05
1.837588,1.04E-05,1.837588,1.38E-05
1.838382,6.88E-06,1.838382,1.38E-05
1.839176,-6.21E-06,1.839176,1.38E-05
1.839971,-1.31E-05,1.839971,1.38E-05
1.840765,-1.49E-05,1.840765,1.38E-05
1.841559,-1.66E-05,1.841559,1.38E-05
1.842353,-1.43E-05,1.842353,1.38E-05
1.843147,-1.04E-05,1.843147,1.38E-05
1.843941,-3.52E-06,1.843941,1.38E-05
1.844735,1.51E-06,1.844735,1.38E-05
1.845529,-2.18E-06,1.845529,1.38E-05
1.846323,-1.39E-05,1.846323,1.38E-05
1.847118,-1.90E-05,1.847118,1.38E-05
1.847912,-1.49E-05,1.847912,1.38E-05
1.848706,-1.06E-05,1.848706,1.38E-05
1.8495,-1.39E-05,1.8495,1.38E-05
1.850294,-1.96E-05,1.850294,1.38E-05
1.851088,-2.45E-05,1.851088,1.38E-05
1.851882,-3.09E-05,1.851882,1.39E-05
1.852676,-3.37E-05,1.852676,1.40E-05
1.853471,-3.19E-05,1.853471,1.41E-05
1.854265,-2.47E-05,1.854265,1.42E-05
1.855059,-1.81E-05,1.855059,1.43E-05
1.855853,-1.53E-05,1.855853,1.43E-05
1.856647,-1.17E-05,1.856647,1.43E-05
1.857441,-1.26E-05,1.857441,1.43E-05
1.858235,-2.10E-05,1.858235,1.43E-05
1.859029,-1.96E-05,1.859029,1.43E-05
1.859823,-1.16E-05,1.859823,1.44E-05
1.860618,-9.23E-06,1.860618,1.44E-05
1.861412,-1.71E-05,1.861412,1.44E-05
1.862206,-1.53E-05,1.862206,1.44E-05
1.863,1.51E-06,1.863,1.44E-05
1.863794,9.23E-06,1.863794,1.44E-05
1.864588,1.39E-05,1.864588,1.44E-05
1.865382,1.54E-05,1.865382,1.45E-05
1.866176,1.86E-05,1.866176,1.45E-05
1.866971,1.39E-05,1.866971,1.45E-05
1.867765,1.28E-05,1.867765,1.45E-05
1.868559,1.41E-05,1.868559,1.46E-05
1.869353,1.73E-05,1.869353,1.46E-05
1.870147,1.09E-05,1.870147,1.46E-05
1.870941,3.36E-06,1.870941,1.45E-05
1.871735,4.53E-06,1.871735,1.45E-05
1.872529,1.17E-06,1.872529,1.45E-05
1.873324,-1.78E-05,1.873324,1.44E-05
1.874118,-1.56E-05,1.874118,1.45E-05
1.874912,-1.09E-05,1.874912,1.45E-05
1.875706,-1.04E-05,1.875706,1.44E-05
1.8765,-8.90E-06,1.8765,1.44E-05
1.877294,-8.39E-07,1.877294,1.44E-05
1.878088,4.36E-06,1.878088,1.44E-05
1.878882,7.05E-06,1.878882,1.44E-05
1.879676,8.39E-07,1.879676,1.44E-05
1.880471,-8.22E-06,1.880471,1.44E-05
1.881265,-1.06E-05,1.881265,1.44E-05
1.882059,-1.80E-05,1.882059,1.45E-05
1.882853,-1.38E-05,1.882853,1.45E-05
1.883647,1.51E-06,1.883647,1.44E-05
1.884441,7.55E-06,1.884441,1.43E-05
1.885235,6.88E-06,1.885235,1.42E-05
1.886029,1.17E-06,1.886029,1.42E-05
1.886824,-1.02E-05,1.886824,1.42E-05
1.887618,-3.61E-05,1.887618,1.42E-05
1.888412,-4.68E-05,1.888412,1.43E-05
1.889206,-2.70E-05,1.889206,1.46E-05
1.89,-7.55E-06,1.89,1.46E-05
1.890794,3.19E-06,1.890794,1.46E-05
1.891588,2.18E-06,1.891588,1.46E-05
1.892382,-1.02E-05,1.892382,1.46E-05
1.893176,-1.16E-05,1.893176,1.46E-05
1.893971,-7.22E-06,1.893971,1.46E-05
1.894765,-1.51E-06,1.894765,1.46E-05
1.895559,2.85E-06,1.895559,1.45E-05
1.896353,3.52E-06,1.896353,1.45E-05
1.897147,-2.52E-06,1.897147,1.45E-05
1.897941,-1.29E-05,1.897941,1.45E-05
1.898735,-1.44E-05,1.898735,1.45E-05
1.899529,-1.21E-05,1.899529,1.45E-05
1.900324,-1.09E-05,1.900324,1.45E-05
1.901118,-8.22E-06,1.901118,1.45E-05
1.901912,-6.88E-06,1.901912,1.44E-05
1.902706,-3.52E-06,1.902706,1.44E-05
1.9035,-2.18E-06,1.9035,1.44E-05
1.904294,-8.39E-07,1.904294,1.44E-05
1.905088,-1.01E-06,1.905088,1.44E-05
1.905882,5.20E-06,1.905882,1.44E-05
1.906676,7.89E-06,1.906676,1.43E-05
1.907471,6.21E-06,1.907471,1.44E-05
1.908265,-1.85E-06,1.908265,1.44E-05
1.909059,-1.24E-05,1.909059,1.43E-05
1.909853,-1.19E-05,1.909853,1.43E-05
1.910647,-2.52E-06,1.910647,1.44E-05
1.911441,-1.68E-06,1.911441,1.44E-05
1.912235,-1.02E-05,1.912235,1.44E-05
1.913029,-1.39E-05,1.913029,1.44E-05
1.913823,-2.06E-05,1.913823,1.44E-05
1.914618,-2.67E-05,1.914618,1.44E-05
1.915412,-2.87E-05,1.915412,1.45E-05
1.916206,-3.26E-05,1.916206,1.46E-05
1.917,-3.37E-05,1.917,1.47E-05
1.917794,-3.81E-05,1.917794,1.48E-05
1.918588,-2.65E-05,1.918588,1.50E-05
1.919382,-1.83E-05,1.919382,1.50E-05
1.920176,-1.76E-05,1.920176,1.51E-05
1.920971,-1.43E-05,1.920971,1.51E-05
1.921765,-3.19E-06,1.921765,1.50E-05
1.922559,1.02E-05,1.922559,1.50E-05
1.923353,1.23E-05,1.923353,1.49E-05
1.924147,9.23E-06,1.924147,1.49E-05
1.924941,1.80E-05,1.924941,1.49E-05
1.925735,2.05E-05,1.925735,1.49E-05
1.926529,1.76E-05,1.926529,1.48E-05
1.927323,1.90E-05,1.927323,1.46E-05
1.928118,1.73E-05,1.928118,1.44E-05
1.928912,4.53E-06,1.928912,1.43E-05
1.929706,-1.07E-05,1.929706,1.42E-05
1.9305,-9.06E-06,1.9305,1.42E-05
1.931294,-4.20E-06,1.931294,1.41E-05
1.932088,-7.55E-06,1.932088,1.41E-05
1.932882,-7.55E-06,1.932882,1.40E-05
1.933676,-6.21E-06,1.933676,1.40E-05
1.934471,-8.22E-06,1.934471,1.39E-05
1.935265,-1.33E-05,1.935265,1.39E-05
1.936059,-1.53E-05,1.936059,1.39E-05
1.936853,-1.70E-05,1.936853,1.39E-05
1.937647,-2.27E-05,1.937647,1.39E-05
1.938441,-2.27E-05,1.938441,1.40E-05
1.939235,-1.51E-05,1.939235,1.40E-05
1.940029,-7.72E-06,1.940029,1.40E-05
1.940824,-5.54E-06,1.940824,1.40E-05
1.941618,-3.69E-06,1.941618,1.39E-05
1.942412,1.01E-06,1.942412,1.39E-05
1.943206,1.02E-05,1.943206,1.39E-05
1.944,1.29E-05,1.944,1.39E-05
1.944794,7.72E-06,1.944794,1.39E-05
1.945588,5.04E-07,1.945588,1.38E-05
1.946382,-2.52E-06,1.946382,1.38E-05
1.947176,5.04E-07,1.947176,1.38E-05
1.947971,1.34E-06,1.947971,1.37E-05
1.948765,1.17E-06,1.948765,1.36E-05
1.949559,4.53E-06,1.949559,1.36E-05
1.950353,2.18E-06,1.950353,1.36E-05
1.951147,-8.56E-06,1.951147,1.35E-05
1.951941,-1.70E-05,1.951941,1.35E-05
1.952735,-2.84E-05,1.952735,1.35E-05
1.953529,-3.44E-05,1.953529,1.36E-05
1.954324,-3.44E-05,1.954324,1.38E-05
1.955118,-2.64E-05,1.955118,1.39E-05
1.955912,-1.73E-05,1.955912,1.40E-05
1.956706,-1.56E-05,1.956706,1.40E-05
1.9575,-1.80E-05,1.9575,1.40E-05
1.958294,-2.27E-05,1.958294,1.41E-05
1.959088,-2.67E-05,1.959088,1.41E-05
1.959882,-2.58E-05,1.959882,1.42E-05
1.960676,-1.96E-05,1.960676,1.43E-05
1.961471,-1.59E-05,1.961471,1.43E-05
1.962265,-1.16E-05,1.962265,1.43E-05
1.963059,-6.88E-06,1.963059,1.44E-05
1.963853,-7.89E-06,1.963853,1.44E-05
1.964647,-1.19E-05,1.964647,1.43E-05
1.965441,-9.57E-06,1.965441,1.43E-05
1.966235,-3.52E-06,1.966235,1.43E-05
1.967029,5.87E-06,1.967029,1.43E-05
1.967824,5.54E-06,1.967824,1.43E-05
1.968618,-3.52E-06,1.968618,1.43E-05
1.969412,-1.56E-05,1.969412,1.43E-05
1.970206,-2.05E-05,1.970206,1.44E-05
1.971,-1.66E-05,1.971,1.44E-05
1.971794,-1.54E-05,1.971794,1.44E-05
1.972588,-2.23E-05,1.972588,1.44E-05
1.973382,-2.45E-05,1.973382,1.44E-05
1.974176,-1.43E-05,1.974176,1.45E-05
1.974971,-5.54E-06,1.974971,1.45E-05
1.975765,-3.19E-06,1.975765,1.45E-05
1.976559,-1.51E-06,1.976559,1.45E-05
1.977353,-2.52E-06,1.977353,1.45E-05
1.978147,1.17E-06,1.978147,1.45E-05
1.978941,3.52E-06,1.978941,1.45E-05
1.979735,1.85E-06,1.979735,1.45E-05
1.980529,1.68E-07,1.980529,1.45E-05
1.981323,8.39E-07,1.981323,1.44E-05
1.982118,-1.68E-07,1.982118,1.43E-05
1.982912,-6.21E-06,1.982912,1.42E-05
1.983706,-3.19E-06,1.983706,1.42E-05
1.9845,1.16E-05,1.9845,1.41E-05
1.985294,2.00E-05,1.985294,1.41E-05
1.986088,1.98E-05,1.986088,1.41E-05
1.986882,1.80E-05,1.986882,1.42E-05
1.987677,2.13E-05,1.987677,1.42E-05
1.988471,1.78E-05,1.988471,1.42E-05
1.989265,1.29E-05,1.989265,1.43E-05
1.990059,-1.14E-05,1.990059,1.42E-05
1.990853,-4.62E-05,1.990853,1.42E-05
1.991647,-3.78E-05,1.991647,1.44E-05
1.992441,-7.55E-06,1.992441,1.46E-05
1.993235,3.02E-06,1.993235,1.46E-05
1.994029,-3.36E-07,1.994029,1.46E-05
1.994823,2.69E-06,1.994823,1.45E-05
1.995618,7.89E-06,1.995618,1.45E-05
1.996412,-1.68E-07,1.996412,1.45E-05
1.997206,-6.21E-06,1.997206,1.45E-05
1.998,-1.01E-06,1.998,1.45E-05
1.998794,-1.51E-06,1.998794,1.45E-05
1.999588,-2.52E-06,1.999588,1.45E-05
2.000382,-2.18E-06,2.000382,1.45E-05
2.001176,-8.39E-07,2.001176,1.45E-05
2.001971,7.89E-06,2.001971,1.45E-05
2.002765,1.12E-05,2.002765,1.45E-05
2.003559,7.89E-06,2.003559,1.45E-05
2.004353,6.88E-06,2.004353,1.46E-05
2.005147,2.52E-06,2.005147,1.46E-05
2.005941,1.51E-06,2.005941,1.46E-05
2.006735,3.36E-07,2.006735,1.46E-05
2.007529,-2.35E-06,2.007529,1.46E-05
2.008323,-3.86E-06,2.008323,1.46E-05
2.009118,2.52E-06,2.009118,1.46E-05
2.009912,2.85E-06,2.009912,1.46E-05
2.010706,7.22E-06,2.010706,1.45E-05
2.0115,-3.19E-06,2.0115,1.45E-05
2.012294,-1.83E-05,2.012294,1.45E-05
2.013088,-2.17E-05,2.013088,1.46E-05
2.013882,-2.47E-05,2.013882,1.46E-05
2.014676,-2.74E-05,2.014676,1.47E-05
2.015471,-2.57E-05,2.015471,1.48E-05
2.016265,-2.47E-05,2.016265,1.48E-05
2.017059,-2.99E-05,2.017059,1.47E-05
2.017853,-4.25E-05,2.017853,1.47E-05
2.018647,-3.91E-05,2.018647,1.48E-05
2.019441,-2.92E-05,2.019441,1.48E-05
2.020235,-2.25E-05,2.020235,1.48E-05
2.021029,-1.96E-05,2.021029,1.48E-05
2.021823,-1.91E-05,2.021823,1.48E-05
2.022618,-1.80E-05,2.022618,1.48E-05
2.023412,-1.53E-05,2.023412,1.49E-05
2.024206,-1.19E-05,2.024206,1.49E-05
2.025,-4.87E-06,2.025,1.49E-05
2.025794,8.39E-07,2.025794,1.49E-05
2.026588,3.86E-06,2.026588,1.49E-05
2.027382,7.72E-06,2.027382,1.49E-05
2.028177,1.49E-05,2.028177,1.49E-05
2.02897,1.80E-05,2.02897,1.49E-05
2.029765,1.56E-05,2.029765,1.49E-05
2.030559,1.12E-05,2.030559,1.50E-05
2.031353,4.20E-06,2.031353,1.50E-05
2.032147,-4.70E-06,2.032147,1.50E-05
2.032941,-8.22E-06,2.032941,1.50E-05
2.033735,-1.83E-05,2.033735,1.50E-05
2.034529,-3.00E-05,2.034529,1.50E-05
2.035323,-1.83E-05,2.035323,1.51E-05
2.036118,-6.21E-06,2.036118,1.51E-05
2.036912,-1.31E-05,2.036912,1.51E-05
2.037706,-1.58E-05,2.037706,1.52E-05
2.0385,-1.33E-05,2.0385,1.52E-05
2.039294,-4.36E-06,2.039294,1.52E-05
2.040088,5.87E-06,2.040088,1.52E-05
2.040882,6.55E-06,2.040882,1.52E-05
2.041677,8.39E-07,2.041677,1.51E-05
2.04247,-4.20E-06,2.04247,1.51E-05
2.043265,-8.90E-06,2.043265,1.51E-05
2.044059,-1.43E-05,2.044059,1.51E-05
2.044853,-1.58E-05,2.044853,1.50E-05
2.045647,-1.53E-05,2.045647,1.50E-05
2.046441,-1.33E-05,2.046441,1.49E-05
2.047235,-1.29E-05,2.047235,1.49E-05
2.048029,-1.19E-05,2.048029,1.49E-05
2.048824,-1.23E-05,2.048824,1.49E-05
2.049618,-1.26E-05,2.049618,1.49E-05
2.050412,-1.36E-05,2.050412,1.50E-05
2.051206,-1.29E-05,2.051206,1.50E-05
2.052,-6.21E-06,2.052,1.48E-05
2.052794,1.68E-07,2.052794,1.47E-05
2.053588,1.17E-06,2.053588,1.47E-05
2.054382,5.04E-07,2.054382,1.47E-05
2.055176,5.04E-07,2.055176,1.47E-05
2.055971,7.89E-06,2.055971,1.47E-05
2.056765,1.51E-06,2.056765,1.47E-05
2.057559,-8.22E-06,2.057559,1.47E-05
2.058353,-1.66E-05,2.058353,1.47E-05
2.059147,-2.77E-05,2.059147,1.48E-05
2.059941,-3.64E-05,2.059941,1.49E-05
2.060735,-3.26E-05,2.060735,1.50E-05
2.061529,-1.93E-05,2.061529,1.51E-05
2.062324,-1.76E-05,2.062324,1.51E-05
2.063118,-1.07E-05,2.063118,1.51E-05
2.063912,-2.52E-06,2.063912,1.51E-05
2.064706,4.53E-06,2.064706,1.51E-05
2.0655,1.17E-05,2.0655,1.51E-05
2.066294,1.78E-05,2.066294,1.52E-05
2.067088,1.64E-05,2.067088,1.52E-05
2.067882,8.22E-06,2.067882,1.52E-05
2.068676,-1.85E-06,2.068676,1.52E-05
2.069471,-1.33E-05,2.069471,1.52E-05
2.070265,-1.31E-05,2.070265,1.52E-05
2.071059,-5.20E-06,2.071059,1.52E-05
2.071853,-4.36E-06,2.071853,1.52E-05
2.072647,-5.20E-06,2.072647,1.52E-05
2.073441,-3.19E-06,2.073441,1.52E-05
2.074235,3.36E-07,2.074235,1.51E-05
2.075029,1.51E-06,2.075029,1.51E-05
2.075824,-6.55E-06,2.075824,1.51E-05
2.076618,-1.26E-05,2.076618,1.51E-05
2.077412,-1.66E-05,2.077412,1.51E-05
2.078206,-1.04E-05,2.078206,1.52E-05
2.079,-3.86E-06,2.079,1.51E-05
2.079794,-6.71E-06,2.079794,1.51E-05
2.080588,-5.54E-06,2.080588,1.51E-05
2.081382,-1.41E-05,2.081382,1.51E-05
2.082176,-2.37E-05,2.082176,1.51E-05
2.082971,-2.06E-05,2.082971,1.51E-05
2.083765,-2.30E-05,2.083765,1.52E-05
2.084559,-2.58E-05,2.084559,1.52E-05
2.085353,-1.73E-05,2.085353,1.53E-05
2.086147,-1.09E-05,2.086147,1.53E-05
2.086941,-1.12E-05,2.086941,1.53E-05
2.087735,-1.39E-05,2.087735,1.53E-05
2.088529,-1.63E-05,2.088529,1.53E-05
2.089324,-1.09E-05,2.089324,1.53E-05
2.090118,-1.02E-05,2.090118,1.53E-05
2.090912,-1.54E-05,2.090912,1.53E-05
2.091706,-1.83E-05,2.091706,1.53E-05
2.0925,-1.56E-05,2.0925,1.53E-05
2.093294,-9.90E-06,2.093294,1.54E-05
2.094088,-7.22E-06,2.094088,1.54E-05
2.094882,-9.74E-06,2.094882,1.54E-05
2.095676,-6.55E-06,2.095676,1.54E-05
2.096471,-1.68E-07,2.096471,1.54E-05
2.097265,-4.70E-06,2.097265,1.53E-05
2.098059,-1.38E-05,2.098059,1.53E-05
2.098853,-7.55E-06,2.098853,1.53E-05
2.099647,1.21E-05,2.099647,1.53E-05
2.100441,9.90E-06,2.100441,1.53E-05
2.101235,2.85E-06,2.101235,1.52E-05
2.102029,2.69E-06,2.102029,1.51E-05
2.102823,2.18E-06,2.102823,1.50E-05
2.103618,-2.01E-06,2.103618,1.49E-05
2.104412,-6.71E-07,2.104412,1.48E-05
2.105206,2.18E-06,2.105206,1.48E-05
2.106,4.70E-06,2.106,1.48E-05
2.106794,8.90E-06,2.106794,1.48E-05
2.107588,1.11E-05,2.107588,1.47E-05
2.108382,8.39E-06,2.108382,1.47E-05
2.109176,1.85E-06,2.109176,1.47E-05
2.109971,-8.56E-06,2.109971,1.47E-05
2.110765,-1.04E-05,2.110765,1.47E-05
2.111559,-4.53E-06,2.111559,1.46E-05
2.112353,1.31E-05,2.112353,1.46E-05
2.113147,1.78E-05,2.113147,1.46E-05
2.113941,4.20E-06,2.113941,1.47E-05
2.114735,-2.55E-05,2.114735,1.46E-05
2.115529,-2.77E-05,2.115529,1.47E-05
2.116323,-6.21E-06,2.116323,1.47E-05
2.117118,3.19E-06,2.117118,1.47E-05
2.117912,5.20E-06,2.117912,1.47E-05
2.118706,4.20E-06,2.118706,1.47E-05
2.1195,-5.71E-06,2.1195,1.47E-05
2.120294,-1.80E-05,2.120294,1.46E-05
2.121088,-1.43E-05,2.121088,1.47E-05
2.121882,-7.55E-06,2.121882,1.47E-05
2.122676,-4.70E-06,2.122676,1.47E-05
2.123471,1.01E-06,2.123471,1.47E-05
2.124265,-1.17E-06,2.124265,1.46E-05
2.125059,-1.53E-05,2.125059,1.46E-05
2.125853,-2.80E-05,2.125853,1.46E-05
2.126647,-2.30E-05,2.126647,1.47E-05
2.127441,-1.83E-05,2.127441,1.48E-05
2.128235,-1.17E-05,2.128235,1.48E-05
2.129029,-1.19E-05,2.129029,1.48E-05
2.129823,-1.39E-05,2.129823,1.48E-05
2.130618,-1.63E-05,2.130618,1.49E-05
2.131412,-1.73E-05,2.131412,1.49E-05
2.132206,-1.96E-05,2.132206,1.49E-05
2.133,-2.27E-05,2.133,1.49E-05
2.133794,-2.43E-05,2.133794,1.49E-05
2.134588,-2.23E-05,2.134588,1.50E-05
2.135382,-1.73E-05,2.135382,1.50E-05
2.136176,-1.38E-05,2.136176,1.51E-05
2.136971,-6.21E-06,2.136971,1.51E-05
2.137765,-3.52E-06,2.137765,1.50E-05
2.138559,1.01E-06,2.138559,1.47E-05
2.139353,8.56E-06,2.139353,1.46E-05
2.140147,1.28E-05,2.140147,1.46E-05
2.140941,1.16E-05,2.140941,1.47E-05
2.141735,1.66E-05,2.141735,1.47E-05
2.142529,1.63E-05,2.142529,1.47E-05
2.143323,3.86E-06,2.143323,1.47E-05
2.144118,-2.52E-06,2.144118,1.47E-05
2.144912,-5.20E-06,2.144912,1.47E-05
2.145706,-6.21E-06,2.145706,1.47E-05
2.1465,-4.20E-06,2.1465,1.47E-05
2.147294,-1.04E-05,2.147294,1.47E-05
2.148088,-1.59E-05,2.148088,1.47E-05
2.148882,-1.70E-05,2.148882,1.47E-05
2.149676,-2.32E-05,2.149676,1.47E-05
2.15047,-3.17E-05,2.15047,1.48E-05
2.151265,-3.19E-05,2.151265,1.49E-05
2.152059,-3.24E-05,2.152059,1.50E-05
2.152853,-2.47E-05,2.152853,1.51E-05
2.153647,-1.71E-05,2.153647,1.51E-05
2.154441,-1.53E-05,2.154441,1.52E-05
2.155235,-6.71E-06,2.155235,1.52E-05
2.156029,-2.52E-06,2.156029,1.52E-05
2.156823,-2.18E-06,2.156823,1.52E-05
2.157618,1.85E-06,2.157618,1.52E-05
2.158412,7.89E-06,2.158412,1.52E-05
2.159206,6.55E-06,2.159206,1.52E-05
2.16,5.54E-06,2.16,1.52E-05
2.160794,1.01E-05,2.160794,1.52E-05
2.161588,1.39E-05,2.161588,1.52E-05
2.162382,1.24E-05,2.162382,1.52E-05
2.163177,1.23E-05,2.163177,1.52E-05
2.16397,7.89E-06,2.16397,1.52E-05
2.164765,2.35E-06,2.164765,1.51E-05
2.165559,1.01E-06,2.165559,1.50E-05
2.166353,1.51E-06,2.166353,1.49E-05
2.167147,-2.18E-06,2.167147,1.48E-05
2.167941,-3.19E-06,2.167941,1.46E-05
2.168735,6.71E-07,2.168735,1.45E-05
2.169529,3.69E-06,2.169529,1.45E-05
2.170324,1.01E-06,2.170324,1.45E-05
2.171118,5.04E-07,2.171118,1.44E-05
2.171912,6.88E-06,2.171912,1.44E-05
2.172706,7.22E-06,2.172706,1.44E-05
2.1735,3.86E-06,2.1735,1.44E-05
2.174294,3.86E-06,2.174294,1.44E-05
2.175088,6.88E-06,2.175088,1.44E-05
2.175882,9.06E-06,2.175882,1.43E-05
2.176677,3.36E-07,2.176677,1.43E-05
2.17747,-7.55E-06,2.17747,1.43E-05
2.178265,-8.56E-06,2.178265,1.43E-05
2.179059,-1.39E-05,2.179059,1.43E-05
2.179853,-1.12E-05,2.179853,1.43E-05
2.180647,-9.06E-06,2.180647,1.43E-05
2.181441,-1.23E-05,2.181441,1.43E-05
2.182235,-1.90E-05,2.182235,1.43E-05
2.183029,-2.23E-05,2.183029,1.43E-05
2.183824,-1.78E-05,2.183824,1.44E-05
2.184618,-8.56E-06,2.184618,1.44E-05
2.185412,2.52E-06,2.185412,1.44E-05
2.186206,1.17E-06,2.186206,1.44E-05
2.187,-7.89E-06,2.187,1.43E-05
2.187794,-8.90E-06,2.187794,1.43E-05
2.188588,-7.89E-06,2.188588,1.42E-05
2.189382,-8.39E-07,2.189382,1.42E-05
2.190176,7.55E-06,2.190176,1.42E-05
2.190971,1.12E-05,2.190971,1.42E-05
2.191765,1.36E-05,2.191765,1.42E-05
2.192559,1.29E-05,2.192559,1.42E-05
2.193353,7.89E-06,2.193353,1.43E-05
2.194147,2.52E-06,2.194147,1.42E-05
2.194941,2.69E-06,2.194941,1.42E-05
2.195735,-8.39E-07,2.195735,1.42E-05
2.196529,-3.52E-06,2.196529,1.42E-05
2.197324,-6.88E-06,2.197324,1.42E-05
2.198118,-8.22E-06,2.198118,1.42E-05
2.198912,-1.59E-05,2.198912,1.42E-05
2.199706,-3.26E-05,2.199706,1.43E-05
2.2005,-4.18E-05,2.2005,1.44E-05
2.201294,-4.15E-05,2.201294,1.46E-05
2.202088,-4.11E-05,2.202088,1.47E-05
2.202882,-3.46E-05,2.202882,1.48E-05
2.203676,-3.14E-05,2.203676,1.48E-05
2.204471,-3.39E-05,2.204471,1.48E-05
2.205265,-2.99E-05,2.205265,1.49E-05
2.206059,-2.10E-05,2.206059,1.49E-05
2.206853,-1.78E-05,2.206853,1.49E-05
2.207647,-1.91E-05,2.207647,1.49E-05
2.208441,-1.56E-05,2.208441,1.49E-05
2.209235,-1.59E-05,2.209235,1.49E-05
2.210029,-2.40E-05,2.210029,1.48E-05
2.210824,-2.40E-05,2.210824,1.48E-05
2.211618,-2.70E-05,2.211618,1.49E-05
2.212412,-2.80E-05,2.212412,1.49E-05
2.213206,-2.84E-05,2.213206,1.50E-05
2.214,-2.57E-05,2.214,1.51E-05
2.214794,-2.00E-05,2.214794,1.52E-05
2.215588,-1.04E-05,2.215588,1.52E-05
2.216382,-5.71E-06,2.216382,1.52E-05
2.217176,-1.66E-05,2.217176,1.52E-05
2.217971,-2.03E-05,2.217971,1.52E-05
2.218765,-1.44E-05,2.218765,1.53E-05
2.219559,-5.20E-06,2.219559,1.53E-05
2.220353,-5.71E-06,2.220353,1.52E-05
2.221147,-6.38E-06,2.221147,1.52E-05
2.221941,-2.52E-06,2.221941,1.52E-05
2.222735,-2.18E-06,2.222735,1.51E-05
2.223529,-1.12E-05,2.223529,1.51E-05
2.224324,-1.73E-05,2.224324,1.51E-05
2.225118,-1.04E-05,2.225118,1.51E-05
2.225912,-2.85E-06,2.225912,1.51E-05
2.226706,6.71E-07,2.226706,1.51E-05
2.2275,2.85E-06,2.2275,1.51E-05
2.228294,3.86E-06,2.228294,1.51E-05
2.229088,7.55E-06,2.229088,1.51E-05
2.229882,6.38E-06,2.229882,1.51E-05
2.230676,1.17E-06,2.230676,1.51E-05
2.231471,3.86E-06,2.231471,1.51E-05
2.232265,9.90E-06,2.232265,1.51E-05
2.233059,7.55E-06,2.233059,1.51E-05
2.233853,8.39E-06,2.233853,1.51E-05
2.234647,9.23E-06,2.234647,1.51E-05
2.235441,8.22E-06,2.235441,1.51E-05
2.236235,1.26E-05,2.236235,1.50E-05
2.237029,1.46E-05,2.237029,1.50E-05
2.237823,7.22E-06,2.237823,1.50E-05
2.238618,2.18E-06,2.238618,1.50E-05
2.239412,-4.53E-06,2.239412,1.50E-05
2.240206,-2.47E-05,2.240206,1.49E-05
2.241,-2.90E-05,2.241,1.48E-05
2.241794,-8.73E-06,2.241794,1.47E-05
2.242588,-1.68E-07,2.242588,1.47E-05
2.243382,6.55E-06,2.243382,1.47E-05
2.244176,1.73E-05,2.244176,1.47E-05
2.244971,1.71E-05,2.244971,1.48E-05
2.245765,1.36E-05,2.245765,1.48E-05
2.246559,7.55E-06,2.246559,1.48E-05
2.247353,6.71E-07,2.247353,1.48E-05
2.248147,-4.87E-06,2.248147,1.48E-05
2.248941,-6.88E-06,2.248941,1.48E-05
2.249735,-4.20E-06,2.249735,1.48E-05
2.250529,-1.04E-05,2.250529,1.48E-05
2.251323,-1.46E-05,2.251323,1.48E-05
2.252118,-3.19E-06,2.252118,1.48E-05
2.252912,-9.90E-06,2.252912,1.48E-05
2.253706,-1.63E-05,2.253706,1.48E-05
2.2545,-1.80E-05,2.2545,1.49E-05
2.255294,-3.02E-05,2.255294,1.49E-05
2.256088,-5.42E-05,2.256088,1.50E-05
2.256882,-3.73E-05,2.256882,1.53E-05
2.257676,-7.22E-06,2.257676,1.54E-05
2.258471,-2.01E-06,2.258471,1.54E-05
2.259265,-6.21E-06,2.259265,1.54E-05
2.260059,-8.22E-06,2.260059,1.54E-05
2.260853,-1.17E-05,2.260853,1.54E-05
2.261647,-1.91E-05,2.261647,1.55E-05
2.262441,-2.38E-05,2.262441,1.55E-05
2.263235,-1.90E-05,2.263235,1.55E-05
2.264029,-1.68E-05,2.264029,1.54E-05
2.264823,-9.57E-06,2.264823,1.54E-05
2.265618,-2.18E-06,2.265618,1.53E-05
2.266412,1.17E-06,2.266412,1.53E-05
2.267206,-8.39E-07,2.267206,1.52E-05
2.268,4.87E-06,2.268,1.50E-05
2.268794,6.55E-06,2.268794,1.48E-05
2.269588,5.54E-06,2.269588,1.47E-05
2.270382,8.90E-06,2.270382,1.47E-05
2.271176,9.23E-06,2.271176,1.47E-05
2.271971,9.23E-06,2.271971,1.46E-05
2.272765,6.55E-06,2.272765,1.46E-05
2.273559,3.36E-07,2.273559,1.46E-05
2.274353,-6.88E-06,2.274353,1.46E-05
2.275147,-4.53E-06,2.275147,1.46E-05
2.275941,2.52E-06,2.275941,1.46E-05
2.276735,6.21E-06,2.276735,1.46E-05
2.277529,6.04E-06,2.277529,1.46E-05
2.278323,1.17E-06,2.278323,1.45E-05
2.279118,-3.52E-06,2.279118,1.45E-05
2.279912,0,2.279912,1.45E-05
2.280706,-5.87E-06,2.280706,1.45E-05
2.2815,-1.44E-05,2.2815,1.45E-05
2.282294,-1.41E-05,2.282294,1.45E-05
2.283088,-1.26E-05,2.283088,1.45E-05
2.283882,-9.23E-06,2.283882,1.45E-05
2.284677,-5.54E-06,2.284677,1.44E-05
2.28547,-9.23E-06,2.28547,1.44E-05
2.286265,-1.29E-05,2.286265,1.44E-05
2.287059,-1.83E-05,2.287059,1.44E-05
2.287853,-2.38E-05,2.287853,1.44E-05
2.288647,-2.27E-05,2.288647,1.44E-05
2.289441,-1.43E-05,2.289441,1.45E-05
2.290235,-1.02E-05,2.290235,1.45E-05
2.291029,-7.55E-06,2.291029,1.45E-05
2.291823,-3.02E-06,2.291823,1.45E-05
2.292618,-4.20E-06,2.292618,1.45E-05
2.293412,-4.53E-06,2.293412,1.45E-05
2.294206,-2.85E-06,2.294206,1.45E-05
2.295,-6.21E-06,2.295,1.45E-05
2.295794,-1.16E-05,2.295794,1.44E-05
2.296588,-1.36E-05,2.296588,1.44E-05
2.297382,-1.76E-05,2.297382,1.44E-05
2.298177,-2.53E-05,2.298177,1.44E-05
2.29897,-1.86E-05,2.29897,1.45E-05
2.299765,-7.05E-06,2.299765,1.45E-05
2.300559,-2.18E-06,2.300559,1.45E-05
2.301353,8.39E-07,2.301353,1.45E-05
2.302147,5.71E-06,2.302147,1.45E-05
2.302941,1.11E-05,2.302941,1.45E-05
2.303735,1.19E-05,2.303735,1.45E-05
2.304529,8.56E-06,2.304529,1.45E-05
2.305324,1.02E-05,2.305324,1.45E-05
2.306118,9.74E-06,2.306118,1.45E-05
2.306912,-3.02E-06,2.306912,1.45E-05
2.307706,-1.31E-05,2.307706,1.45E-05
2.3085,-1.23E-05,2.3085,1.45E-05
2.309294,-5.20E-06,2.309294,1.45E-05
2.310088,1.85E-06,2.310088,1.43E-05
2.310882,-3.86E-06,2.310882,1.42E-05
2.311677,-1.33E-05,2.311677,1.42E-05
2.31247,-1.43E-05,2.31247,1.41E-05
2.313265,-9.57E-06,2.313265,1.42E-05
2.314059,-7.55E-06,2.314059,1.42E-05
2.314853,-7.55E-06,2.314853,1.42E-05
2.315647,-5.20E-06,2.315647,1.42E-05
2.316441,-7.55E-06,2.316441,1.41E-05
2.317235,-1.36E-05,2.317235,1.41E-05
2.318029,-2.60E-05,2.318029,1.41E-05
2.318824,-3.52E-05,2.318824,1.42E-05
2.319618,-2.57E-05,2.319618,1.43E-05
2.320412,-1.90E-05,2.320412,1.44E-05
2.321206,-9.06E-06,2.321206,1.44E-05
2.322,-1.06E-05,2.322,1.44E-05
2.322794,-7.55E-06,2.322794,1.44E-05
2.323588,-5.54E-06,2.323588,1.44E-05
2.324382,-1.11E-05,2.324382,1.44E-05
2.325176,-1.78E-05,2.325176,1.44E-05
2.325971,-1.96E-05,2.325971,1.45E-05
2.326765,-1.76E-05,2.326765,1.45E-05
2.327559,-1.58E-05,2.327559,1.45E-05
2.328353,-1.04E-05,2.328353,1.45E-05
2.329147,-9.23E-06,2.329147,1.45E-05
2.329941,-1.51E-06,2.329941,1.45E-05
2.330735,5.20E-06,2.330735,1.45E-05
2.331529,6.04E-06,2.331529,1.45E-05
2.332324,7.22E-06,2.332324,1.44E-05
2.333118,7.55E-06,2.333118,1.44E-05
2.333912,-1.51E-06,2.333912,1.44E-05
2.334706,-3.69E-06,2.334706,1.43E-05
2.3355,-1.21E-05,2.3355,1.42E-05
2.336294,-2.22E-05,2.336294,1.42E-05
2.337088,-2.10E-05,2.337088,1.43E-05
2.337882,-1.33E-05,2.337882,1.43E-05
2.338676,-1.04E-05,2.338676,1.43E-05
2.339471,-1.51E-05,2.339471,1.43E-05
2.340265,-1.36E-05,2.340265,1.43E-05
2.341059,-9.57E-06,2.341059,1.43E-05
2.341853,-5.87E-06,2.341853,1.43E-05
2.342647,1.85E-06,2.342647,1.43E-05
2.343441,3.19E-06,2.343441,1.43E-05
2.344235,-2.18E-06,2.344235,1.42E-05
2.345029,-6.88E-06,2.345029,1.42E-05
2.345824,-3.86E-06,2.345824,1.42E-05
2.346618,1.68E-07,2.346618,1.42E-05
2.347412,-1.51E-06,2.347412,1.42E-05
2.348206,-5.71E-06,2.348206,1.42E-05
2.349,-5.54E-06,2.349,1.42E-05
2.349794,-8.39E-07,2.349794,1.42E-05
2.350588,-1.34E-06,2.350588,1.42E-05
2.351382,-4.20E-06,2.351382,1.42E-05
2.352176,-3.19E-06,2.352176,1.42E-05
2.352971,-2.18E-06,2.352971,1.42E-05
2.353765,-9.23E-06,2.353765,1.42E-05
2.354559,-6.55E-06,2.354559,1.42E-05
2.355353,2.69E-06,2.355353,1.42E-05
2.356147,2.52E-06,2.356147,1.42E-05
2.356941,-8.22E-06,2.356941,1.42E-05
2.357735,-7.89E-06,2.357735,1.42E-05
2.358529,-3.69E-06,2.358529,1.42E-05
2.359324,-4.36E-06,2.359324,1.42E-05
2.360118,8.39E-07,2.360118,1.42E-05
2.360912,-1.51E-06,2.360912,1.42E-05
2.361706,-1.51E-06,2.361706,1.42E-05
2.3625,-8.22E-06,2.3625,1.41E-05
2.363294,-8.22E-06,2.363294,1.41E-05
2.364088,-9.57E-06,2.364088,1.41E-05
2.364882,-1.90E-05,2.364882,1.41E-05
2.365676,-2.30E-05,2.365676,1.40E-05
2.366471,-1.02E-05,2.366471,1.41E-05
2.367265,-1.68E-07,2.367265,1.41E-05
2.368059,5.20E-06,2.368059,1.41E-05
2.368853,5.71E-06,2.368853,1.41E-05
2.369647,4.20E-06,2.369647,1.41E-05
2.370441,7.89E-06,2.370441,1.40E-05
2.371235,1.33E-05,2.371235,1.40E-05
2.372029,1.85E-05,2.372029,1.40E-05
2.372823,2.62E-05,2.372823,1.41E-05
2.373618,1.19E-05,2.373618,1.42E-05
2.374412,-1.49E-05,2.374412,1.42E-05
2.375206,-2.55E-05,2.375206,1.42E-05
2.376,-7.89E-06,2.376,1.42E-05
2.376794,-3.19E-06,2.376794,1.41E-05
2.377588,-6.21E-06,2.377588,1.41E-05
2.378382,-2.01E-06,2.378382,1.41E-05
2.379176,-9.57E-06,2.379176,1.40E-05
2.379971,-1.90E-05,2.379971,1.40E-05
2.380765,-2.03E-05,2.380765,1.40E-05
2.381559,-2.58E-05,2.381559,1.41E-05
2.382353,-3.04E-05,2.382353,1.41E-05
2.383147,-3.27E-05,2.383147,1.41E-05
2.383941,-3.21E-05,2.383941,1.42E-05
2.384735,-3.11E-05,2.384735,1.42E-05
2.385529,-2.70E-05,2.385529,1.43E-05
2.386323,-2.32E-05,2.386323,1.44E-05
2.387118,-2.40E-05,2.387118,1.44E-05
2.387912,-2.87E-05,2.387912,1.45E-05
2.388706,-2.74E-05,2.388706,1.46E-05
2.3895,-2.08E-05,2.3895,1.47E-05
2.390294,-7.72E-06,2.390294,1.47E-05
2.391088,3.52E-06,2.391088,1.47E-05
2.391882,3.52E-06,2.391882,1.47E-05
2.392676,2.69E-06,2.392676,1.46E-05
2.393471,4.87E-06,2.393471,1.46E-05
2.394265,5.20E-06,2.394265,1.46E-05
2.395059,-3.86E-06,2.395059,1.46E-05
2.395853,-9.57E-06,2.395853,1.46E-05
2.396647,-4.53E-06,2.396647,1.46E-05
2.397441,-2.35E-06,2.397441,1.46E-05
2.398235,-1.68E-07,2.398235,1.46E-05
2.399029,-1.17E-06,2.399029,1.46E-05
2.399823,-3.86E-06,2.399823,1.45E-05
2.400618,-6.71E-07,2.400618,1.44E-05
2.401412,-1.51E-06,2.401412,1.43E-05
2.402206,-8.39E-06,2.402206,1.42E-05
2.403,-9.57E-06,2.403,1.41E-05
2.403794,-1.51E-06,2.403794,1.41E-05
2.404588,-3.52E-06,2.404588,1.41E-05
2.405382,8.39E-07,2.405382,1.41E-05
2.406176,3.19E-06,2.406176,1.41E-05
2.406971,1.17E-06,2.406971,1.41E-05
2.407765,4.53E-06,2.407765,1.41E-05
2.408559,7.22E-06,2.408559,1.40E-05
2.409353,6.55E-06,2.409353,1.40E-05
2.410147,1.01E-06,2.410147,1.40E-05
2.410941,-8.39E-06,2.410941,1.40E-05
2.411735,-1.96E-05,2.411735,1.40E-05
2.412529,-2.03E-05,2.412529,1.41E-05
2.413323,-1.70E-05,2.413323,1.41E-05
2.414118,-2.18E-05,2.414118,1.41E-05
2.414912,-1.93E-05,2.414912,1.42E-05
2.415706,-1.61E-05,2.415706,1.42E-05
2.4165,-1.56E-05,2.4165,1.42E-05
2.417294,-2.08E-05,2.417294,1.43E-05
2.418088,-2.11E-05,2.418088,1.43E-05
2.418882,-1.86E-05,2.418882,1.44E-05
2.419677,-1.38E-05,2.419677,1.44E-05
2.42047,-7.89E-06,2.42047,1.44E-05
2.421265,4.53E-06,2.421265,1.44E-05
2.422059,9.23E-06,2.422059,1.44E-05
2.422853,7.89E-06,2.422853,1.44E-05
2.423647,8.22E-06,2.423647,1.44E-05
2.424441,1.49E-05,2.424441,1.44E-05
2.425235,1.26E-05,2.425235,1.44E-05
2.426029,4.20E-06,2.426029,1.45E-05
2.426823,-2.35E-06,2.426823,1.45E-05
2.427618,-4.20E-06,2.427618,1.45E-05
2.428412,-2.85E-06,2.428412,1.44E-05
2.429206,-2.35E-06,2.429206,1.44E-05
2.43,-5.20E-06,2.43,1.44E-05
2.430794,-4.70E-06,2.430794,1.44E-05
2.431588,-1.23E-05,2.431588,1.44E-05
2.432382,-1.85E-05,2.432382,1.44E-05
2.433177,-1.71E-05,2.433177,1.44E-05
2.43397,-1.51E-05,2.43397,1.43E-05
2.434765,-1.56E-05,2.434765,1.44E-05
2.435559,-8.39E-06,2.435559,1.44E-05
2.436353,-8.39E-07,2.436353,1.44E-05
2.437147,1.68E-07,2.437147,1.44E-05
2.437941,-4.20E-06,2.437941,1.44E-05
2.438735,-6.38E-06,2.438735,1.44E-05
2.439529,-1.61E-05,2.439529,1.44E-05
2.440324,-2.06E-05,2.440324,1.44E-05
2.441118,-1.49E-05,2.441118,1.44E-05
2.441912,-1.44E-05,2.441912,1.44E-05
2.442706,-1.16E-05,2.442706,1.44E-05
2.4435,-6.88E-06,2.4435,1.45E-05
2.444294,-1.33E-05,2.444294,1.45E-05
2.445088,-2.20E-05,2.445088,1.45E-05
2.445882,-2.27E-05,2.445882,1.45E-05
2.446676,-1.66E-05,2.446676,1.46E-05
2.447471,-1.43E-05,2.447471,1.46E-05
2.448265,-1.24E-05,2.448265,1.46E-05
2.449059,-7.55E-06,2.449059,1.46E-05
2.449853,-2.18E-06,2.449853,1.45E-05
2.450647,-9.57E-06,2.450647,1.43E-05
2.451441,-1.31E-05,2.451441,1.41E-05
2.452235,-1.26E-05,2.452235,1.40E-05
2.453029,-1.63E-05,2.453029,1.38E-05
2.453824,-1.59E-05,2.453824,1.38E-05
2.454618,-5.54E-06,2.454618,1.37E-05
2.455412,-1.68E-07,2.455412,1.36E-05
2.456206,1.68E-07,2.456206,1.35E-05
2.457,1.17E-06,2.457,1.35E-05
2.457794,1.01E-06,2.457794,1.34E-05
2.458588,5.87E-06,2.458588,1.34E-05
2.459382,1.16E-05,2.459382,1.34E-05
2.460176,5.54E-06,2.460176,1.33E-05
2.460971,-7.55E-06,2.460971,1.32E-05
2.461765,-2.85E-06,2.461765,1.32E-05
2.462559,3.19E-06,2.462559,1.31E-05
2.463353,7.55E-06,2.463353,1.30E-05
2.464147,9.06E-06,2.464147,1.29E-05
2.464941,9.90E-06,2.464941,1.29E-05
2.465735,9.23E-06,2.465735,1.29E-05
2.466529,6.71E-07,2.466529,1.29E-05
2.467324,-5.54E-06,2.467324,1.28E-05
2.468118,-7.39E-06,2.468118,1.28E-05
2.468912,-1.06E-05,2.468912,1.28E-05
2.469706,-8.22E-06,2.469706,1.28E-05
2.4705,-2.69E-06,2.4705,1.28E-05
2.471294,-4.70E-06,2.471294,1.28E-05
2.472088,-6.21E-06,2.472088,1.28E-05
2.472882,2.52E-06,2.472882,1.28E-05
2.473676,4.53E-06,2.473676,1.28E-05
2.474471,5.20E-06,2.474471,1.27E-05
2.475265,8.90E-06,2.475265,1.27E-05
2.476059,7.39E-06,2.476059,1.27E-05
2.476853,1.85E-06,2.476853,1.27E-05
2.477647,-5.20E-06,2.477647,1.27E-05
2.478441,-1.29E-05,2.478441,1.27E-05
2.479235,-1.38E-05,2.479235,1.28E-05
2.480029,-1.43E-05,2.480029,1.28E-05
2.480824,-1.83E-05,2.480824,1.28E-05
2.481618,-1.78E-05,2.481618,1.28E-05
2.482412,-1.56E-05,2.482412,1.29E-05
2.483206,-1.36E-05,2.483206,1.29E-05
2.484,-1.46E-05,2.484,1.29E-05
2.484794,-1.59E-05,2.484794,1.29E-05
2.485588,-1.56E-05,2.485588,1.29E-05
2.486382,-7.22E-06,2.486382,1.30E-05
2.487176,-3.52E-06,2.487176,1.29E-05
2.487971,-5.87E-06,2.487971,1.29E-05
2.488765,-6.88E-06,2.488765,1.29E-05
2.489559,-8.22E-06,2.489559,1.29E-05
2.490353,-7.89E-06,2.490353,1.29E-05
2.491147,-9.23E-06,2.491147,1.28E-05
2.491941,-1.36E-05,2.491941,1.28E-05
2.492735,-1.04E-05,2.492735,1.28E-05
2.493529,8.39E-07,2.493529,1.28E-05
2.494323,1.24E-05,2.494323,1.28E-05
2.495118,1.81E-05,2.495118,1.27E-05
2.495912,1.43E-05,2.495912,1.28E-05
2.496706,1.06E-05,2.496706,1.28E-05
2.4975,-4.53E-06,2.4975,1.28E-05
2.498294,-3.64E-05,2.498294,1.28E-05
2.499088,-4.38E-05,2.499088,1.30E-05
2.499882,-2.57E-05,2.499882,1.32E-05
2.500676,-1.46E-05,2.500676,1.33E-05
2.501471,-6.88E-06,2.501471,1.33E-05
2.502265,-4.20E-06,2.502265,1.33E-05
2.503059,-4.87E-06,2.503059,1.32E-05
2.503853,-8.22E-06,2.503853,1.32E-05
2.504647,-1.29E-05,2.504647,1.32E-05
2.505441,-1.90E-05,2.505441,1.31E-05
2.506235,-2.77E-05,2.506235,1.28E-05
2.507029,-2.33E-05,2.507029,1.27E-05
2.507823,-1.56E-05,2.507823,1.28E-05
2.508618,-1.56E-05,2.508618,1.28E-05
2.509412,-1.64E-05,2.509412,1.28E-05
2.510206,-1.53E-05,2.510206,1.28E-05
2.511,-1.19E-05,2.511,1.29E-05
2.511794,-1.01E-05,2.511794,1.28E-05
2.512588,-3.02E-06,2.512588,1.28E-05
2.513382,2.52E-06,2.513382,1.27E-05
2.514176,-3.19E-06,2.514176,1.27E-05
2.514971,-1.36E-05,2.514971,1.27E-05
2.515765,-1.02E-05,2.515765,1.27E-05
2.516559,5.04E-07,2.516559,1.27E-05
2.517353,4.87E-06,2.517353,1.27E-05
2.518147,4.70E-06,2.518147,1.27E-05
2.518941,2.35E-06,2.518941,1.27E-05
2.519735,1.85E-06,2.519735,1.27E-05
2.520529,8.39E-07,2.520529,1.27E-05
2.521323,-3.19E-06,2.521323,1.27E-05
2.522118,-1.85E-06,2.522118,1.27E-05
2.522912,-9.40E-06,2.522912,1.27E-05
2.523706,-1.83E-05,2.523706,1.27E-05
2.5245,-1.66E-05,2.5245,1.27E-05
2.525294,-8.90E-06,2.525294,1.28E-05
2.526088,1.51E-06,2.526088,1.28E-05
2.526882,3.86E-06,2.526882,1.28E-05
2.527676,2.52E-06,2.527676,1.28E-05
2.528471,1.85E-06,2.528471,1.28E-05
2.529265,-1.51E-06,2.529265,1.28E-05
2.530059,-2.85E-06,2.530059,1.28E-05
2.530853,-2.35E-06,2.530853,1.28E-05
2.531647,-8.39E-07,2.531647,1.27E-05
2.532441,3.36E-06,2.532441,1.27E-05
2.533235,1.68E-06,2.533235,1.27E-05
2.534029,-3.52E-06,2.534029,1.27E-05
2.534823,-1.17E-05,2.534823,1.27E-05
2.535618,-1.90E-05,2.535618,1.27E-05
2.536412,-2.40E-05,2.536412,1.27E-05
2.537206,-2.85E-05,2.537206,1.27E-05
2.538,-2.43E-05,2.538,1.28E-05
2.538794,-1.46E-05,2.538794,1.28E-05
2.539588,-1.06E-05,2.539588,1.28E-05
2.540382,-1.09E-05,2.540382,1.28E-05
2.541176,-1.53E-05,2.541176,1.28E-05
2.54197,-2.13E-05,2.54197,1.28E-05
2.542765,-1.93E-05,2.542765,1.29E-05
2.543559,-1.23E-05,2.543559,1.29E-05
2.544353,-4.53E-06,2.544353,1.29E-05
2.545147,3.52E-06,2.545147,1.29E-05
2.545941,2.35E-06,2.545941,1.29E-05
2.546735,-4.87E-06,2.546735,1.29E-05
2.547529,-8.22E-06,2.547529,1.29E-05
2.548323,-8.56E-06,2.548323,1.28E-05
2.549118,-6.71E-06,2.549118,1.27E-05
2.549912,-1.51E-06,2.549912,1.27E-05
2.550706,8.39E-07,2.550706,1.27E-05
2.5515,1.51E-06,2.5515,1.27E-05
2.552294,3.86E-06,2.552294,1.27E-05
2.553088,2.18E-06,2.553088,1.27E-05
2.553882,1.85E-06,2.553882,1.27E-05
2.554677,-3.02E-06,2.554677,1.27E-05
2.55547,-7.55E-06,2.55547,1.27E-05
2.556265,-6.88E-06,2.556265,1.27E-05
2.557059,-1.01E-06,2.557059,1.27E-05
2.557853,8.90E-06,2.557853,1.27E-05
2.558647,1.19E-05,2.558647,1.27E-05
